1699287679.00
64.000000
-0.00
-0.00
-0.00
-0.00
-0.00
-0.00
-0.00
-0.00
-0.00
-0.00
0.00
0.01
0.01
-0.00
-0.03
-0.05
-0.05
0.00
0.13
0.36
0.66
1.01
1.37
1.72
2.06
2.40
2.79
3.24
3.80
4.42
5.06
5.66
6.20
6.68
7.15
7.68
8.31
9.14
10.09
11.04
11.88
12.56
13.14
13.76
14.65
15.96
17.91
20.32
22.90
25.38
27.58
29.57
31.68
34.32
37.81
42.54
48.15
54.10
59.83
64.97
69.58
74.14
79.34
85.71
93.76
103.00
112.62
121.73
129.77
136.75
143.30
150.75
157.77
166.64
177.95
191.79
206.97
220.57
228.25
225.36
208.53
176.87
132.76
80.05
23.07
-34.94
-92.44
-149.16
-205.23
-260.37
-313.74
-363.87
-409.83
-450.91
-486.50
-515.74
-537.23
-549.22
-549.96
-538.37
-514.21
-478.67
-433.88
-382.45
-327.02
-269.84
-212.63
-156.66
-102.95
-52.37
-5.90
35.58
71.43
101.35
125.50
144.38
158.69
169.15
176.37
180.75
182.57
182.07
179.51
175.23
169.65
163.18
156.15
148.81
141.30
133.69
126.02
118.33
110.69
103.16
95.80
88.68
81.83
75.25
68.95
62.95
57.25
51.86
46.78
42.03
37.59
33.45
29.61
26.07
22.81
19.83
17.11
14.67
12.48
10.54
8.83
7.35
6.07
4.97
4.05
3.27
2.62
2.09
1.65
1.30
1.01
0.79
0.61
0.47
0.37
0.29
0.23
0.19
0.17
0.16
0.16
0.17
0.19
0.21
0.24
0.28
0.33
0.37
0.42
0.47
0.52
0.57
0.62
0.67
0.73
0.79
0.85
0.92
0.99
1.07
1.17
1.27
1.38
1.50
1.65
1.83
2.03
2.26
2.50
2.73
2.93
3.12
3.31
3.54
3.85
4.25
4.74
5.28
5.82
6.34
6.84
7.34
7.90
8.58
9.41
10.35
11.33
12.26
13.09
13.81
14.51
15.31
16.32
17.57
18.98
20.32
21.28
21.60
21.16
19.99
18.25
16.16
13.78
10.96
7.38
2.61
-3.47
-10.68
-18.42
-25.79
-31.96
-36.44
-39.30
-41.11
-42.71
-44.73
-47.34
-50.08
-52.11
-52.70
-51.55
-48.99
-45.98
-43.58
-42.73
-44.04
-47.65
-53.15
-59.20
-63.56
-63.39
-56.36
-41.77
-21.28
1.41
21.85
36.56
44.38
46.56
45.86
44.93
45.13
46.04
46.20
43.99
38.71
30.81
21.74
13.16
6.24
1.36
-2.05
-4.71
-7.16
-9.43
-11.12
-11.85
-11.66
-11.09
-10.90
-11.63
-13.22
-15.08
-16.46
-16.79
-15.81
-13.64
-10.51
-6.51
-2.23
2.15
6.44
10.34
13.55
15.83
17.19
18.00
18.77
19.92
21.68
23.90
26.18
28.09
29.37
29.96
29.94
29.43
28.52
27.35
26.08
24.82
23.67
22.65
21.68
20.65
19.59
18.74
18.60
19.79
22.70
27.30
33.04
39.05
44.56
49.28
53.58
58.28
64.14
71.30
79.11
86.36
91.81
94.74
95.26
94.05
91.95
89.39
86.23
81.95
76.18
69.00
61.06
53.28
46.35
40.45
35.22
30.10
24.65
18.65
11.83
3.60
-7.02
-21.16
-39.42
-61.47
-86.06
-111.61
-136.95
-161.77
-186.41
-211.04
-234.48
-253.48
-262.99
-257.78
-234.69
-194.66
-143.10
-88.46
-39.16
-0.80
25.44
42.33
54.53
66.19
79.30
93.45
106.77
117.36
124.38
128.18
129.86
130.36
129.80
127.33
121.48
111.06
96.00
77.77
59.02
42.63
30.90
25.06
25.34
31.38
42.41
57.33
74.57
92.14
107.93
120.13
127.70
130.52
129.34
125.30
119.47
112.24
103.18
91.29
75.56
55.78
32.92
8.95
-14.07
-34.93
-53.89
-72.35
-91.93
-113.58
-137.11
-161.50
-185.59
-208.74
-230.81
-251.69
-270.58
-285.72
-294.62
-294.89
-285.15
-265.42
-237.03
-202.33
-164.28
-126.41
-92.96
-68.46
-56.75
-59.48
-74.78
-97.27
-119.48
-134.44
-137.87
-129.20
-110.79
-86.23
-58.77
-30.71
-3.58
21.19
42.26
58.78
70.97
80.22
88.49
97.12
106.26
114.84
121.36
124.80
125.01
122.56
118.10
111.99
104.27
95.03
84.71
74.26
65.04
58.42
55.49
56.74
62.08
70.83
81.68
92.78
101.82
106.48
105.01
96.77
82.64
64.84
46.43
30.36
18.68
12.01
9.62
9.86
11.04
11.97
12.15
11.54
10.23
8.20
5.28
1.39
-3.37
-8.57
-13.73
-18.39
-22.33
-25.53
-28.10
-30.17
-31.99
-33.84
-36.01
-38.66
-41.60
-44.34
-46.29
-47.12
-46.96
-46.37
-46.11
-46.61
-47.71
-48.66
-48.40
-46.19
-41.90
-36.09
-29.71
-23.62
-18.28
-13.71
-9.73
-6.28
-3.53
-1.76
-1.07
-1.29
-1.98
-2.67
-3.10
-3.27
-3.30
-3.19
-2.80
-1.92
-0.48
1.31
3.07
4.45
5.30
5.74
5.96
6.04
5.84
5.12
3.79
2.07
0.37
-0.91
-1.69
-2.27
-3.14
-4.67
-6.95
-9.69
-12.41
-14.63
-16.00
-16.36
-15.61
-13.86
-11.37
-8.64
-6.28
-4.75
-4.14
-4.19
-4.44
-4.53
-4.37
-4.10
-3.86
-3.61
-3.06
-1.84
0.22
2.96
5.86
8.37
10.11
11.05
11.49
11.83
12.39
13.21
14.13
14.87
15.16
14.92
14.27
13.54
13.06
13.17
13.97
15.40
17.19
18.98
20.44
21.42
22.02
22.66
23.90
26.36
30.48
36.48
44.23
53.27
62.70
71.41
78.32
82.74
84.62
84.43
82.81
79.99
75.63
68.84
58.73
45.00
28.19
9.57
-9.37
-27.40
-43.84
-58.42
-70.98
-81.27
-88.88
-93.43
-94.80
-93.26
-89.47
-84.25
-78.36
-72.18
-65.79
-59.00
-51.71
-44.08
-36.67
-30.21
-25.32
-22.10
-20.00
-17.92
-14.58
-8.99
-0.74
9.92
22.21
35.12
47.67
59.01
68.47
75.64
80.45
83.20
84.56
85.23
85.59
85.42
83.90
79.96
72.77
62.26
49.22
35.05
21.19
8.55
-2.78
-13.43
-24.25
-35.80
-47.96
-59.99
-70.96
-80.19
-87.57
-93.39
-98.01
-101.51
-103.74
-104.57
-104.23
-103.45
-103.08
-103.58
-104.62
-105.24
-104.24
-100.88
-95.21
-87.97
-80.15
-72.52
-65.40
-58.76
-52.54
-46.77
-41.67
-37.40
-33.84
-30.53
-26.84
-22.22
-16.45
-9.68
-2.35
5.04
12.14
18.72
24.66
29.86
34.10
37.23
39.13
39.94
39.89
39.32
38.42
37.09
35.00
31.68
26.90
20.75
13.79
6.74
0.12
-5.96
-11.85
-17.93
-24.36
-30.77
-36.55
-41.13
-44.44
-46.99
-49.51
-52.49
-55.85
-58.94
-60.94
-61.32
-60.11
-57.76
-54.81
-51.51
-47.60
-42.58
-35.93
-27.57
-17.91
-7.77
1.91
10.41
17.40
22.93
27.23
30.52
32.87
34.28
34.76
34.49
33.81
33.07
32.42
31.68
30.38
28.03
24.34
19.40
13.77
8.26
3.69
0.56
-1.03
-1.39
-1.00
-0.30
0.47
1.42
2.80
4.87
7.69
11.15
15.03
19.18
23.54
28.09
32.68
36.93
40.39
42.72
43.94
44.45
44.88
45.73
47.10
48.59
49.52
49.30
47.73
44.98
41.46
37.57
33.57
29.58
25.82
22.64
20.49
19.70
20.29
21.84
23.71
25.27
26.12
26.10
25.15
23.23
20.27
16.33
11.80
7.39
3.93
2.06
1.93
3.23
5.37
7.84
10.35
12.94
15.72
18.70
21.69
24.34
26.34
27.56
28.12
28.40
28.81
29.69
31.10
32.82
34.40
35.35
35.31
34.21
32.27
29.84
27.35
25.07
23.11
21.50
20.15
18.96
17.75
16.32
14.50
12.23
9.63
6.97
4.54
2.48
0.69
-1.11
-3.25
-5.98
-9.20
-12.52
-15.28
-16.76
-16.43
-14.08
-9.96
-4.74
0.81
6.01
10.49
14.25
17.58
20.83
24.18
27.63
30.97
33.96
36.41
38.31
39.79
41.12
42.61
44.52
46.97
49.90
53.01
55.84
57.78
58.22
56.71
53.04
47.38
40.26
32.49
24.91
18.18
12.66
8.33
5.04
2.55
0.75
-0.37
-0.82
-0.76
-0.61
-0.98
-2.53
-5.67
-10.40
-16.21
-22.28
-27.65
-31.55
-33.53
-33.57
-32.00
-29.37
-26.25
-23.09
-20.11
-17.36
-14.69
-11.94
-8.98
-5.80
-2.51
0.80
4.10
7.45
10.89
14.38
17.81
21.10
24.31
27.60
31.15
34.94
38.66
41.81
43.82
44.33
43.27
40.83
37.38
33.26
28.84
24.44
20.36
16.77
13.65
10.62
7.06
2.15
-4.90
-14.70
-27.43
-42.77
-59.81
-77.26
-93.55
-107.29
-117.50
-123.87
-126.83
-127.37
-126.64
-125.55
-124.43
-122.94
-120.31
-115.71
-108.65
-99.12
-87.55
-74.54
-60.60
-46.17
-31.66
-17.56
-4.53
6.76
15.84
22.55
27.12
29.94
31.45
31.99
31.76
30.90
29.60
28.06
26.57
25.41
24.74
24.65
25.11
26.07
27.52
29.42
31.66
34.04
36.16
37.54
37.77
36.81
35.17
34.06
35.17
40.03
49.45
62.99
79.08
95.55
110.31
121.70
128.69
130.63
127.00
117.51
102.00
80.22
51.41
14.36
-31.68
-85.28
-141.44
-191.74
-226.47
-238.28
-224.97
-190.31
-141.92
-88.20
-35.88
10.59
48.54
76.56
94.68
105.29
113.08
123.50
139.92
161.27
181.92
194.02
191.06
170.64
135.21
90.67
43.81
0.15
-37.18
-67.56
-92.39
-114.66
-138.26
-166.81
-202.38
-244.14
-287.79
-326.15
-351.10
-355.93
-337.36
-296.56
-238.76
-171.97
-104.93
-45.40
1.38
33.30
51.12
57.66
56.60
51.31
44.20
36.81
30.56
27.58
30.97
43.86
67.70
100.54
136.69
168.26
188.32
194.12
188.67
179.61
175.67
182.51
200.06
222.82
242.78
253.38
252.64
243.69
233.03
227.16
229.88
240.53
254.38
264.60
264.63
249.92
218.83
172.53
114.44
50.06
-12.96
-65.16
-97.06
-102.22
-80.65
-40.48
3.85
36.31
45.46
28.64
-7.63
-51.05
-88.72
-111.56
-116.19
-104.32
-80.58
-50.72
-20.60
4.33
19.41
21.62
10.38
-12.38
-43.50
-79.84
-119.10
-159.59
-198.94
-233.02
-256.05
-262.37
-248.51
-214.77
-164.71
-103.66
-37.55
27.19
83.26
122.28
135.73
117.81
67.74
-7.19
-92.67
-171.57
-229.78
-260.62
-265.69
-253.23
-233.54
-216.82
-208.81
-210.84
-221.93
-240.60
-265.17
-292.17
-316.83
-333.38
-340.25
-338.11
-329.43
-317.47
-304.43
-290.32
-272.51
-249.36
-220.59
-191.27
-165.04
-141.56
-117.47
-89.56
-58.27
-27.43
-4.32
29.37
81.94
151.15
226.47
296.67
353.88
387.16
398.08
388.89
364.46
328.30
285.80
247.29
221.37
212.65
219.98
237.86
256.34
265.47
255.69
223.65
173.46
113.56
52.97
-2.31
-49.90
-92.30
-133.87
-180.48
-234.94
-295.08
-354.17
-402.50
-430.16
-429.96
-400.89
-348.00
-281.19
-210.84
-144.35
-84.84
-31.94
16.44
62.75
108.69
155.28
202.03
246.34
282.77
303.75
302.36
276.14
229.62
174.33
125.77
98.37
100.63
132.25
184.57
243.70
295.01
327.36
335.63
321.08
289.48
248.41
204.40
161.16
119.39
77.70
33.50
-16.31
-74.78
-143.94
-223.14
-307.50
-387.86
-452.83
-492.52
-502.09
-483.36
-443.67
-392.60
-338.34
-285.61
-235.62
-187.43
-139.40
-89.72
-36.47
22.05
86.27
154.05
220.21
277.72
320.33
345.19
354.36
353.74
350.09
347.96
348.45
349.89
349.56
345.29
335.66
319.85
297.04
266.88
230.79
193.03
160.08
137.52
126.86
123.68
119.67
106.26
78.41
36.70
-13.35
-63.89
-108.76
-145.05
-172.99
-193.40
-206.66
-213.25
-214.48
-212.63
-209.59
-206.86
-204.66
-202.43
-198.25
-190.02
-176.81
-158.86
-137.34
-113.73
-92.27
-77.14
-77.45
-99.99
-140.95
-185.45
-215.23
-224.52
-214.12
-192.21
-170.36
-158.42
-159.31
-166.62
-172.23
-168.78
-153.08
-126.40
-94.77
-65.66
-44.77
-32.91
-26.44
-20.62
-11.96
0.12
14.32
27.87
38.22
44.11
46.32
46.61
45.83
43.43
37.95
28.99
17.82
7.65
2.20
3.83
11.67
21.20
26.18
21.67
7.03
-13.88
-34.22
-47.01
-47.40
-33.82
-7.55
28.51
71.31
118.82
169.62
222.26
274.84
324.99
370.17
407.79
435.13
450.41
454.23
448.87
437.00
419.97
397.33
367.55
329.29
282.18
228.57
174.35
125.97
87.50
58.87
35.98
13.34
-13.75
-48.37
-89.55
-130.86
-163.49
-179.10
-171.56
-138.42
-80.20
-0.23
94.57
181.57
235.04
237.74
191.89
115.84
30.12
-49.08
-105.91
-140.01
-151.05
-137.05
-99.20
-44.01
19.51
77.89
118.96
135.02
123.29
82.31
23.04
-34.31
-83.18
-122.86
-154.73
-180.86
-202.68
-221.19
-235.37
-242.44
-241.17
-233.13
-220.17
-204.73
-188.79
-173.37
-159.15
-145.90
-132.61
-119.39
-107.97
-99.50
-94.82
-94.05
-96.16
-99.62
-102.74
-104.41
-105.54
-108.84
-116.26
-128.20
-143.04
-157.42
-167.54
-170.26
-164.03
-149.42
-128.87
-105.31
-81.84
-61.35
-45.85
-36.08
-31.29
-29.42
-27.89
-24.50
-17.64
-6.63
8.26
26.06
45.32
64.28
81.16
94.51
103.50
108.02
108.58
105.87
100.50
92.85
83.18
71.95
60.01
48.47
38.39
30.14
23.21
16.32
7.98
-2.70
-15.54
-29.45
-42.77
-53.99
-62.38
-68.12
-72.23
-75.98
-80.33
-85.41
-90.27
-93.25
-92.68
-87.85
-79.53
-69.72
-60.98
-55.20
-52.36
-50.17
-44.52
-30.79
-5.19
34.21
86.78
148.87
213.75
272.46
315.67
336.34
332.14
306.39
267.11
224.37
186.68
158.37
139.20
126.17
115.99
106.71
97.59
88.16
78.07
66.09
50.60
30.67
7.55
-15.10
-33.01
-43.81
-47.73
-45.83
-40.65
-35.96
-36.37
-45.63
-65.15
-93.35
-126.41
-157.94
-178.90
-183.26
-172.03
-153.42
-137.34
-129.15
-126.90
-123.84
-110.95
-78.76
-23.25
52.67
141.26
234.98
329.50
422.01
507.63
556.79
545.89
475.34
373.84
276.46
202.84
153.66
125.27
101.75
74.08
43.91
16.98
-2.81
-16.64
-28.47
-38.98
-46.38
-48.99
-44.30
-28.48
0.28
39.68
82.98
121.97
150.33
164.93
165.10
153.88
137.38
121.19
107.72
95.05
79.28
57.93
31.90
5.20
-15.30
-22.48
-12.48
13.40
48.97
85.90
116.93
137.52
146.01
143.32
131.70
113.44
90.36
63.86
35.34
6.49
-20.92
-45.65
-67.10
-85.54
-102.14
-118.48
-135.91
-155.24
-176.58
-199.72
-224.21
-249.26
-273.45
-294.66
-310.43
-319.00
-320.15
-315.48
-307.65
-299.29
-292.06
-286.61
-283.23
-282.34
-284.28
-288.43
-292.47
-292.79
-286.13
-271.62
-252.06
-233.42
-222.64
-225.03
-242.38
-272.51
-310.22
-348.77
-381.29
-402.09
-407.41
-396.00
-369.05
-329.70
-281.72
-228.43
-171.93
-112.82
-50.68
15.15
84.52
155.19
222.27
278.83
317.98
335.76
333.17
316.09
292.62
268.98
246.40
221.00
186.65
139.43
80.89
18.34
-37.92
-78.66
-98.83
-98.45
-81.11
-51.76
-14.94
25.83
67.76
108.09
144.10
173.64
195.68
210.64
219.82
224.31
223.83
216.52
200.15
174.27
142.33
111.71
91.35
87.68
100.87
123.34
142.49
145.48
125.15
83.74
32.49
-12.41
-35.62
-27.45
13.86
83.01
169.60
261.03
344.73
409.88
448.89
458.17
438.56
394.52
333.50
263.43
191.25
121.97
58.22
0.34
-53.33
-106.10
-162.47
-224.36
-292.26
-364.08
-436.11
-504.68
-567.01
-621.08
-664.63
-695.69
-708.59
-700.43
-671.06
-623.87
-564.56
-499.07
-431.50
-363.42
-297.25
-231.58
-170.75
-121.91
-92.48
-86.41
-101.27
-127.84
-153.10
-167.53
-160.41
-131.80
-87.25
-33.86
23.52
84.30
150.51
240.95
327.12
405.56
465.85
498.94
501.22
476.09
432.45
380.80
329.04
277.86
231.61
191.73
163.04
153.00
167.44
205.54
257.31
305.87
331.47
325.44
286.25
221.98
145.87
71.33
8.23
-37.95
-65.35
-75.98
-71.13
-56.31
-39.63
-30.77
-38.67
-68.51
-119.60
-184.88
-253.13
-310.46
-346.41
-355.74
-339.04
-301.32
-249.63
-191.21
-132.74
-80.50
-39.90
-15.82
-11.45
-27.15
-59.80
-102.71
-146.95
-183.19
-203.91
-205.37
-188.25
-156.78
-116.69
-73.25
-30.08
10.36
45.79
73.41
90.78
97.44
95.97
91.30
88.51
90.52
97.19
106.91
119.12
136.03
161.72
199.00
246.09
295.68
337.36
362.10
366.03
351.42
324.46
291.77
257.55
223.04
187.91
151.98
116.13
81.96
51.12
24.75
3.70
-11.10
-18.71
-18.81
-12.54
-2.55
7.89
16.06
20.83
22.73
23.20
23.75
25.49
29.14
35.27
44.19
55.44
67.33
77.20
82.30
81.02
73.50
61.36
46.64
30.69
13.58
-5.72
-28.49
-55.54
-86.76
-121.10
-156.92
-192.23
-225.07
-253.65
-276.78
-294.01
-305.65
-312.46
-315.12
-313.81
-308.17
-297.52
-281.35
-259.75
-233.55
-204.12
-173.12
-142.07
-112.24
-84.48
-59.23
-36.43
-15.42
5.15
27.17
52.66
83.09
118.76
158.65
200.75
242.57
281.63
315.56
341.88
357.82
361.01
350.46
327.72
296.73
262.38
228.33
195.37
161.84
125.74
87.14
49.06
16.34
-7.02
-20.29
-26.72
-32.14
-42.13
-59.22
-81.47
-102.79
-114.83
-109.72
-82.65
-33.58
32.58
107.54
182.34
249.68
305.09
346.48
372.74
382.58
374.77
348.91
306.62
251.53
188.53
122.93
59.77
4.20
-38.18
-61.27
-59.68
-30.79
23.04
93.69
168.77
234.93
281.99
305.68
308.22
296.00
276.26
254.17
231.79
208.99
185.25
161.02
137.70
116.57
97.68
79.52
59.94
37.41
12.00
-14.66
-40.30
-63.08
-82.30
-98.46
-112.80
-126.46
-139.95
-152.97
-164.67
-174.08
-180.69
-184.62
-186.61
-187.89
-189.62
-192.62
-197.05
-202.46
-208.11
-213.67
-219.85
-228.32
-240.76
-257.31
-275.29
-289.18
-292.08
-278.00
-244.01
-191.11
-124.04
-50.34
20.92
80.66
121.77
141.15
140.97
128.14
111.56
98.28
90.36
84.50
74.42
54.68
23.57
-16.85
-62.47
-108.70
-151.07
-184.61
-203.72
-203.94
-185.31
-154.65
-124.28
-107.17
-110.06
-128.96
-150.29
-157.33
-138.86
-94.83
-35.82
23.24
71.14
105.27
130.71
154.51
179.47
201.25
210.51
198.58
162.82
108.49
45.96
-14.54
-67.37
-112.93
-155.58
-199.86
-247.40
-296.54
-343.78
-386.01
-421.92
-451.93
-476.87
-496.71
-509.80
-513.10
-502.96
-476.42
-432.25
-371.67
-298.26
-217.54
-135.60
-57.71
12.99
76.09
133.93
190.80
251.31
318.22
390.19
461.00
520.34
556.98
562.88
536.20
481.53
407.50
322.97
235.04
149.41
71.98
9.64
-31.24
-47.97
-43.86
-27.71
-10.59
-1.34
-4.04
-18.50
-42.93
-76.60
-120.54
-175.64
-239.94
-307.13
-367.66
-411.84
-433.43
-431.54
-410.13
-376.16
-336.44
-295.40
-254.26
-212.15
-168.31
-124.34
-84.34
-53.79
-37.11
-35.53
-46.48
-64.58
-83.73
-98.85
-107.01
-107.36
-100.60
-88.36
-72.68
-55.63
-38.98
-23.96
-11.36
-1.74
4.32
6.11
3.34
-3.22
-11.57
-18.98
-23.07
-22.81
-18.81
-12.61
-5.63
1.74
10.19
20.77
33.91
48.98
64.32
77.94
88.33
94.91
98.03
98.57
97.48
95.56
93.51
92.06
91.92
93.53
96.67
100.36
103.08
103.42
100.68
95.23
88.39
81.88
77.23
75.49
77.16
82.25
90.09
98.95
105.81
106.80
98.35
78.70
49.14
14.33
-18.78
-43.10
-53.80
-49.97
-34.69
-13.87
5.70
18.58
22.12
16.93
6.16
-6.20
-16.65
-23.05
-24.82
-22.83
-18.28
-12.69
-7.76
-5.60
-8.61
-17.77
-30.86
-42.04
-43.95
-30.72
-1.39
39.00
81.09
114.54
132.83
135.54
130.82
127.89
133.34
146.85
162.84
175.96
183.81
187.47
189.15
189.84
188.09
181.40
167.99
148.53
125.84
103.02
82.11
63.56
46.03
26.52
1.71
-30.90
-71.65
-113.28
-149.86
-174.41
-180.68
-165.85
-132.77
-89.48
-46.78
-14.15
3.25
5.11
-3.86
-16.92
-28.30
-35.00
-36.78
-35.17
-31.91
-28.47
-26.11
-24.74
-23.52
-21.41
-17.78
-12.27
-4.92
4.05
14.31
24.81
35.03
44.83
54.67
65.29
77.90
93.71
113.24
134.66
153.56
164.79
163.96
149.44
123.96
93.97
65.04
44.85
36.25
34.40
33.18
27.70
15.92
-1.51
-22.13
-42.64
-58.93
-67.73
-67.67
-60.11
-49.79
-43.19
-45.11
-55.85
-70.83
-82.71
-83.58
-69.27
-40.65
-2.68
39.14
82.26
128.14
180.46
242.18
312.18
384.43
449.69
498.42
523.90
524.13
502.13
464.13
416.99
365.89
313.37
260.42
208.31
159.71
118.39
87.62
67.87
55.81
45.11
28.86
2.88
-31.93
-69.32
-99.60
-113.38
-105.41
-76.84
-35.44
6.88
37.78
48.18
34.57
-0.66
-50.60
-106.22
-158.88
-202.34
-233.93
-254.52
-267.80
-278.88
-292.89
-313.79
-343.46
-380.12
-417.91
-447.65
-459.52
-447.35
-412.44
-364.59
-318.96
-289.63
-282.98
-295.16
-314.98
-330.76
-336.65
-334.60
-331.04
-330.84
-332.96
-330.29
-314.39
-280.83
-232.10
-176.17
-121.80
-73.57
-29.69
16.03
69.40
131.31
196.02
253.15
291.89
305.41
293.31
260.86
216.12
166.47
116.46
67.69
20.25
-25.66
-69.02
-108.60
-143.94
-175.82
-205.46
-233.15
-257.13
-273.70
-278.64
-268.95
-244.54
-208.75
-167.42
-127.11
-93.20
-68.54
-52.80
-42.83
-33.75
-20.69
-0.72
25.55
53.73
77.13
89.71
89.30
79.21
67.28
62.75
72.33
97.67
135.34
179.03
222.44
261.21
293.12
317.39
333.84
342.74
345.29
343.83
341.42
340.86
343.83
350.63
360.45
371.86
382.68
389.70
388.59
374.58
343.77
294.44
227.68
147.04
57.70
-34.25
-122.14
-199.02
-258.39
-295.47
-308.55
-299.81
-274.70
-240.09
-201.96
-163.56
-125.33
-86.45
-47.07
-9.74
20.71
39.31
43.51
34.66
17.20
-3.97
-26.30
-50.39
-78.29
-110.39
-143.03
-169.02
-180.78
-174.38
-151.74
-119.50
-85.57
-54.45
-25.50
5.29
41.16
80.52
115.89
136.46
133.24
103.29
51.93
-9.29
-67.32
-112.45
-141.03
-155.07
-159.63
-159.42
-158.00
-156.39
-154.21
-150.50
-144.26
-134.44
-120.04
-100.37
-74.57
-45.15
-15.14
11.43
30.42
38.85
35.83
22.73
2.81
-18.15
-39.58
-61.06
-84.04
-110.33
-139.76
-169.18
-193.01
-205.30
-199.35
-179.20
-150.24
-120.40
-96.92
-83.14
-77.28
-73.40
-64.36
-40.89
-6.10
37.38
85.48
135.77
189.22
249.83
321.57
378.36
444.97
505.28
545.61
554.96
529.13
472.52
396.80
317.62
250.13
209.20
195.00
205.23
232.62
267.31
299.26
320.06
323.86
307.51
273.44
219.67
149.13
66.52
-21.81
-108.45
-185.91
-248.14
-291.56
-313.61
-318.46
-309.43
-289.42
-260.04
-222.01
-176.48
-126.54
-77.48
-34.72
-4.61
10.54
12.25
4.94
-5.96
-15.85
-22.06
-23.95
-21.83
-17.29
-11.50
-5.26
0.98
6.98
12.71
18.20
23.60
29.12
35.05
41.59
48.57
55.31
60.70
63.48
62.78
58.50
51.29
42.25
32.55
23.32
15.84
11.66
12.36
18.85
30.57
45.13
58.77
67.46
68.22
59.98
43.69
21.57
-3.82
-30.42
-56.79
-81.89
-104.88
-124.96
-141.69
-155.15
-165.78
-173.76
-178.37
-177.67
-168.99
-149.96
-119.72
-79.38
-31.81
19.26
70.28
118.36
161.39
197.77
226.17
245.66
255.84
256.90
249.47
234.47
212.95
186.25
156.04
124.43
93.66
65.61
41.46
21.55
5.65
-6.69
-15.91
-22.41
-26.77
-29.83
-32.75
-36.61
-42.11
-49.21
-57.27
-65.45
-73.29
-81.19
-90.32
-102.05
-116.98
-134.10
-150.76
-163.35
-168.65
-165.20
-153.99
-138.12
-121.51
-107.35
-96.92
-89.41
-82.57
-73.95
-61.96
-46.54
-29.07
-11.95
2.24
11.50
15.02
13.37
8.29
2.09
-3.07
-5.73
-5.42
-2.65
1.36
5.07
7.12
6.83
4.54
1.63
-0.12
0.69
4.30
9.55
14.42
16.93
15.93
11.47
4.48
-3.74
-11.79
-18.30
-21.77
-20.81
-14.59
-3.44
10.78
25.17
36.71
43.49
45.51
44.41
42.66
42.02
42.59
42.52
39.03
29.98
15.21
-3.02
-20.97
-35.02
-43.23
-45.80
-44.66
-42.08
-39.56
-37.34
-34.67
-30.62
-24.63
-16.73
-7.37
2.78
12.96
22.24
29.53
33.80
34.40
31.50
25.97
18.90
11.14
2.88
-6.20
-16.37
-27.21
-37.36
-44.77
-47.44
-44.38
-36.11
-24.46
-11.95
-0.70
8.32
15.53
22.41
30.49
40.22
50.37
58.10
59.75
52.41
35.02
8.93
-22.71
-56.20
-88.47
-117.64
-142.74
-162.91
-176.78
-182.72
-179.67
-168.30
-151.33
-133.07
-118.25
-110.67
-112.76
-125.52
-148.85
-181.67
-221.68
-265.14
-307.03
-341.99
-365.43
-374.72
-369.45
-351.14
-322.40
-286.18
-245.14
-201.58
-157.39
-114.07
-72.76
-34.15
1.65
35.34
68.35
102.33
138.08
174.48
208.22
234.79
250.62
255.09
251.24
244.64
240.85
242.90
250.16
259.17
265.87
267.87
265.41
260.81
256.77
254.70
254.08
253.18
250.25
244.59
236.73
227.85
218.56
208.30
195.44
178.16
155.71
128.99
100.41
72.90
48.73
28.81
12.64
-1.02
-13.30
-24.61
-34.55
-42.32
-47.32
-49.61
-49.95
-49.53
-49.50
-50.66
-53.14
-56.42
-59.47
-60.96
-59.58
-54.50
-45.64
-33.79
-20.48
-7.57
3.30
10.98
14.99
15.39
12.60
7.27
0.07
-8.44
-17.87
-27.99
-38.76
-50.10
-61.88
-73.81
-85.37
-95.76
-103.81
-108.05
-107.10
-100.12
-87.44
-70.54
-51.71
-33.17
-16.29
-1.18
13.08
27.87
44.39
63.08
83.30
103.18
119.84
129.92
130.51
120.07
99.26
71.29
41.32
15.35
-1.46
-6.14
1.28
18.00
39.40
60.53
77.35
87.38
89.46
83.06
67.58
41.97
5.09
-43.49
-102.59
-168.90
-237.05
-300.58
-353.20
-390.39
-410.27
-413.67
-403.46
-383.23
-356.15
-324.40
-289.23
-251.50
-212.10
-172.08
-132.34
-93.28
-54.82
-16.75
20.78
56.91
90.21
119.11
142.64
160.82
174.64
185.54
194.91
203.51
211.34
217.79
221.98
223.04
220.49
214.29
204.95
193.37
180.65
167.89
155.95
145.28
136.01
128.06
121.23
115.22
109.66
104.01
97.64
89.87
80.06
67.65
52.47
34.93
16.45
-0.68
-13.70
-20.29
-19.35
-11.59
0.71
14.41
26.52
34.90
38.70
38.27
34.98
30.83
27.89
27.74
30.86
36.42
42.66
47.58
49.77
48.75
44.64
37.68
27.59
13.61
-5.11
-28.83
-56.66
-86.45
-115.07
-139.19
-156.01
-164.13
-163.98
-157.59
-148.01
-138.17
-130.10
-124.51
-121.02
-118.83
-117.39
-116.77
-117.55
-120.27
-124.80
-130.03
-133.92
-134.06
-128.38
-115.87
-96.78
-72.49
-45.00
-16.49
11.12
36.36
58.19
76.09
90.03
100.46
108.07
113.59
117.54
120.25
121.92
122.83
123.19
122.96
121.74
118.89
113.94
107.06
99.18
91.68
85.78
81.86
79.39
77.27
74.58
71.27
68.15
66.30
66.01
65.98
63.14
53.39
32.97
-0.14
-45.27
-98.79
-154.81
-206.52
-248.00
-275.60
-288.67
-289.23
-280.89
-267.54
-252.08
-235.91
-219.13
-201.16
-181.41
-159.64
-135.93
-110.41
-83.29
-54.94
-26.22
1.30
25.56
44.39
56.33
61.33
60.91
57.80
54.86
53.85
54.88
56.71
57.79
57.32
55.59
53.70
52.75
53.17
54.57
56.04
56.50
55.19
51.79
46.66
40.70
35.15
31.35
30.11
31.50
34.73
38.46
41.48
43.13
43.45
42.90
41.93
40.59
38.63
35.61
31.33
26.09
20.79
16.75
15.00
15.77
18.25
21.00
22.73
22.91
21.83
19.96
17.50
14.03
9.09
2.79
-3.89
-9.30
-12.02
-11.76
-9.58
-7.21
-6.00
-6.03
-6.13
-4.93
-1.81
2.28
5.42
5.95
3.62
0.01
-2.32
-1.51
2.34
7.21
10.42
10.40
7.54
3.78
1.24
0.96
2.51
4.79
7.19
9.95
13.74
18.42
22.15
21.82
14.49
-1.09
-23.40
-48.64
-72.20
-90.45
-101.79
-106.86
-107.60
-105.92
-102.58
-96.79
-86.83
-71.20
-49.65
-23.67
3.92
29.93
51.98
69.24
82.59
93.78
104.44
115.20
125.54
134.12
139.46
140.59
137.38
130.67
121.92
112.73
104.46
97.84
92.82
88.73
84.54
79.34
72.83
65.59
58.91
54.36
53.29
56.47
64.00
75.25
88.93
103.05
114.92
121.47
119.89
108.41
87.02
57.61
23.41
-11.86
-44.86
-72.95
-94.47
-108.64
-115.79
-117.27
-115.36
-112.80
-112.18
-115.14
-122.15
-132.60
-145.36
-159.20
-172.98
-185.43
-195.11
-200.39
-199.99
-193.44
-181.35
-165.32
-147.44
-129.58
-112.91
-97.74
-83.64
-69.94
-56.22
-42.46
-29.04
-16.62
-5.81
3.04
9.96
15.47
20.58
26.65
35.14
46.97
61.87
77.99
92.06
100.45
100.58
91.97
76.37
57.16
37.94
21.17
7.86
-2.13
-9.32
-14.11
-16.66
-17.12
-16.01
-14.19
-12.61
-11.76
-11.61
-11.64
-11.24
-10.05
-8.01
-5.41
-2.53
0.32
3.29
6.61
10.46
14.69
18.88
22.56
25.42
27.49
28.94
29.64
29.02
26.32
21.32
14.55
7.37
1.41
-1.99
-2.46
-0.54
2.79
6.68
10.95
15.93
22.02
29.03
35.96
40.97
42.03
37.84
28.46
15.74
2.51
-8.34
-15.14
-18.24
-19.73
-22.33
-28.04
-37.03
-47.49
-56.43
-61.06
-60.06
-54.52
-47.51
-43.05
-44.45
-52.88
-67.00
-83.79
-99.80
-112.61
-121.48
-126.94
-129.93
-131.54
-133.00
-136.04
-142.79
-154.41
-169.30
-181.98
-184.26
-168.98
-134.65
-88.05
-42.70
-13.04
-7.22
-22.60
-46.49
-62.08
-55.97
-23.44
31.65
100.87
176.69
255.20
335.12
414.53
487.90
546.18
580.13
584.60
561.11
517.21
463.21
407.99
356.37
308.85
263.25
217.19
169.57
120.73
71.51
21.82
-29.80
-85.41
-145.75
-208.00
-264.51
-303.89
-314.50
-289.41
-230.52
-149.62
-65.27
3.08
41.38
44.74
17.14
-31.88
-91.57
-152.89
-209.12
-254.77
-284.72
-294.27
-280.71
-244.69
-190.62
-124.82
-52.90
22.18
99.76
179.29
257.81
328.76
383.38
413.96
416.94
394.09
351.36
296.10
234.92
173.00
114.61
64.05
25.73
3.21
-2.42
6.63
25.17
46.51
64.44
74.73
75.41
66.49
49.01
24.59
-4.45
-34.61
-60.89
-77.26
-78.32
-61.24
-27.30
17.93
66.05
107.89
135.44
142.87
127.06
88.07
30.02
-38.41
-105.00
-156.72
-184.23
-185.72
-168.10
-144.71
-130.31
-135.18
-161.77
-204.67
-254.09
-300.51
-338.15
-365.69
-384.76
-397.73
-406.40
-412.09
-416.52
-422.01
-430.95
-444.04
-458.86
-469.91
-470.67
-456.36
-425.84
-381.95
-329.76
-274.83
-221.23
-170.57
-122.03
-73.32
-21.39
36.98
103.55
177.41
253.41
322.76
375.71
405.44
410.42
395.26
369.26
338.61
309.21
284.45
263.60
242.32
215.90
182.49
141.97
96.82
51.10
9.65
-24.13
-46.44
-56.72
-54.36
-44.83
-36.51
-35.11
-40.77
-49.31
-56.18
-60.13
-61.08
-59.24
-54.87
-47.29
-35.13
-17.34
4.91
29.38
53.78
76.94
99.30
121.93
146.03
171.75
197.18
218.62
232.39
236.71
232.75
224.13
214.87
207.91
204.02
201.71
198.14
190.72
178.05
160.20
138.17
113.25
86.87
60.59
36.06
14.80
-2.09
-14.31
-22.62
-28.49
-33.50
-38.54
-43.39
-47.14
-48.94
-48.67
-47.16
-45.52
-44.28
-42.91
-39.77
-33.14
-21.90
-6.01
13.45
34.42
54.00
68.71
75.16
71.18
56.67
33.73
5.83
-23.71
-52.92
-81.41
-109.70
-137.90
-164.82
-188.02
-204.70
-212.72
-211.44
-201.71
-185.46
-165.05
-142.83
-120.68
-99.84
-80.83
-63.78
-48.85
-36.22
-26.20
-18.65
-12.73
-7.17
-0.85
6.51
14.10
20.37
23.89
24.19
21.95
18.71
16.04
14.76
14.78
15.21
15.02
13.61
10.92
7.48
4.00
1.08
-1.07
-2.68
-4.29
-6.53
-9.69
-13.70
-18.12
-22.40
-26.24
-29.51
-32.32
-34.78
-36.86
-38.39
-39.11
-38.68
-36.87
-33.74
-29.49
-24.46
-18.92
-12.78
-5.67
2.73
12.21
21.95
30.49
36.62
40.23
43.17
48.88
61.06
81.67
109.60
140.68
168.93
188.97
197.70
194.87
182.53
163.34
139.68
113.47
86.91
62.80
43.96
31.87
25.95
23.70
22.05
19.22
15.50
12.56
11.98
14.01
17.37
19.96
20.50
19.03
16.59
14.20
12.17
10.23
8.68
9.29
14.89
27.99
48.95
75.29
102.22
124.42
138.36
143.50
142.19
138.30
135.47
135.75
139.02
143.20
145.19
141.86
130.92
111.75
85.52
54.82
22.70
-8.26
-36.86
-63.23
-88.55
-114.34
-142.46
-175.03
-213.86
-259.40
-309.25
-357.89
-397.74
-421.81
-426.69
-413.63
-387.57
-354.38
-318.16
-280.05
-239.13
-194.52
-147.22
-100.37
-57.92
-22.74
4.64
25.81
43.06
58.06
71.21
81.84
89.08
92.83
94.02
94.42
95.85
99.25
104.46
110.34
115.25
117.80
117.22
113.49
107.27
99.98
93.16
88.26
85.92
85.73
86.28
85.86
83.28
78.58
73.15
69.12
68.23
70.99
76.44
82.80
88.55
93.09
96.94
101.16
106.72
114.24
124.03
136.48
152.12
170.86
191.02
208.78
218.87
216.18
197.97
164.98
121.18
71.79
20.79
-30.04
-80.59
-130.19
-175.80
-212.05
-233.23
-235.85
-220.32
-190.54
-152.20
-111.07
-72.37
-41.24
-23.17
-23.46
-45.12
-86.33
-139.25
-191.46
-230.12
-246.59
-239.87
-216.20
-185.92
-159.13
-142.10
-136.04
-138.18
-144.75
-152.86
-161.21
-169.03
-174.48
-174.21
-164.53
-143.37
-111.82
-74.41
-37.19
-5.39
18.59
35.67
49.18
62.87
79.11
98.07
118.09
136.95
152.96
165.64
175.35
182.33
186.25
186.29
181.82
173.31
162.54
151.77
142.69
135.69
129.79
123.54
115.82
106.15
94.38
80.50
64.31
45.96
26.24
6.45
-11.98
-28.19
-42.33
-55.22
-67.69
-79.95
-91.33
-100.73
-107.21
-110.34
-110.41
-108.13
-103.99
-98.24
-90.88
-81.95
-71.84
-61.44
-51.73
-43.43
-36.54
-30.39
-24.12
-17.25
-10.10
-3.67
0.97
3.24
3.38
2.27
0.70
-1.02
-3.14
-5.99
-9.41
-12.46
-13.85
-12.61
-8.71
-3.15
2.55
7.06
9.88
11.36
12.41
14.01
16.85
21.18
26.77
33.09
39.42
45.13
50.02
54.50
59.47
66.06
74.98
85.92
97.42
106.98
111.71
109.17
98.29
80.15
57.95
36.45
20.39
12.97
14.27
21.39
29.27
32.53
27.55
13.77
-6.22
-27.86
-46.27
-57.86
-61.22
-57.30
-48.72
-38.71
-29.96
-24.08
-21.47
-22.04
-25.77
-32.74
-42.61
-54.04
-64.40
-70.53
-70.02
-62.51
-50.14
-36.96
-27.40
-24.53
-29.03
-39.15
-51.94
-64.25
-73.74
-79.16
-80.23
-77.38
-71.54
-64.00
-56.09
-49.05
-43.88
-41.29
-41.51
-44.31
-48.80
-53.79
-57.83
-59.76
-58.97
-55.77
-51.35
-47.41
-45.36
-45.55
-46.84
-46.95
-43.44
-35.02
-22.35
-7.90
5.12
14.09
17.97
17.50
14.32
9.90
4.84
-1.07
-8.07
-15.81
-23.19
-28.84
-31.79
-31.86
-29.68
-26.25
-22.38
-18.54
-14.98
-11.86
-9.23
-6.71
-3.48
1.56
9.14
19.09
29.99
39.74
46.63
50.18
51.24
51.47
52.23
53.88
55.82
57.10
57.19
56.40
55.53
55.32
55.94
57.03
58.05
58.64
58.61
57.81
55.93
52.52
47.54
41.69
36.40
33.02
32.00
32.62
33.36
32.72
29.89
25.16
19.43
13.71
8.70
4.72
1.95
0.70
1.20
3.45
7.06
11.18
14.97
17.91
20.16
22.25
24.71
27.59
30.44
32.59
33.61
33.56
33.04
32.82
33.24
33.98
34.26
33.31
30.94
27.64
24.36
22.09
21.45
22.69
25.67
29.92
34.46
37.93
38.97
37.03
32.73
27.91
24.89
25.46
30.03
37.25
44.32
47.79
44.72
33.57
14.84
-9.22
-35.25
-59.90
-80.80
-97.03
-108.95
-117.54
-123.62
-127.39
-128.56
-126.82
-122.04
-114.37
-104.12
-91.70
-77.67
-62.91
-48.59
-35.93
-25.77
-18.16
-12.53
-7.87
-3.21
1.87
7.11
11.84
15.43
17.51
18.12
17.47
15.83
13.51
11.09
9.35
9.23
11.38
15.75
21.66
28.03
33.88
38.63
42.09
44.29
45.24
45.01
43.90
42.60
41.94
42.63
44.89
48.32
52.06
55.13
56.62
56.00
53.08
47.86
40.49
31.16
20.06
7.52
-5.83
-19.03
-30.78
-39.93
-45.81
-48.58
-48.94
-47.94
-46.27
-44.15
-41.37
-37.74
-33.36
-28.58
-23.94
-19.80
-16.40
-13.73
-11.80
-10.59
-10.01
-9.85
-9.95
-10.10
-10.28
-10.53
-10.83
-11.14
-11.31
-11.28
-11.00
-10.47
-9.61
-8.39
-6.77
-4.84
-2.87
-1.25
-0.50
-1.09
-3.22
-6.71
-10.84
-14.50
-16.49
-16.08
-13.33
-9.28
-5.46
-3.10
-2.47
-2.77
-2.64
-1.03
2.05
5.66
8.41
9.26
8.02
5.19
1.63
-1.88
-4.81
-6.81
-7.61
-7.07
-5.32
-2.89
-0.60
0.84
1.12
0.42
-0.75
-1.86
-2.77
-3.85
-5.81
-9.40
-14.95
-22.17
-30.16
-37.71
-43.58
-46.80
-46.77
-43.11
-35.76
-25.07
-12.10
1.25
12.76
20.62
24.29
24.64
23.55
22.75
23.15
24.54
26.05
26.79
26.35
24.86
22.86
20.96
19.61
19.01
19.12
19.56
19.74
19.06
17.12
14.00
10.06
5.66
0.90
-4.46
-10.74
-17.93
-25.38
-31.79
-35.58
-35.57
-31.48
-24.25
-15.73
-8.11
-2.98
-0.90
-1.12
-2.08
-2.21
-0.58
2.67
6.48
9.42
10.45
9.36
6.97
4.69
3.82
4.81
7.12
9.48
10.66
10.14
8.17
5.45
2.50
-0.74
-4.64
-9.37
-14.58
-19.49
-23.42
-26.31
-28.74
-31.48
-34.83
-38.20
-40.47
-40.52
-37.83
-32.69
-25.84
-17.89
-9.20
0.11
9.76
18.90
26.40
31.33
33.54
33.75
33.26
33.19
33.91
35.00
35.54
34.87
32.99
30.55
28.32
26.70
25.41
23.79
21.31
17.91
14.04
10.28
6.96
3.80
0.13
-4.78
-11.24
-18.82
-26.40
-32.47
-35.69
-35.37
-31.72
-25.65
-18.44
-11.19
-4.59
1.16
6.20
10.85
15.36
19.95
24.56
28.86
32.24
34.04
33.79
31.64
28.43
25.45
23.95
24.59
27.16
30.79
34.32
36.83
37.83
37.37
35.87
33.89
31.96
30.42
29.31
28.23
26.48
23.21
17.93
10.84
3.00
-3.88
-8.08
-8.42
-4.80
1.92
10.24
18.61
25.83
31.24
34.64
36.04
35.64
33.76
30.93
27.83
25.11
23.22
22.09
21.36
20.40
18.81
16.58
13.90
10.96
7.77
4.14
0.02
-4.24
-7.95
-10.44
-11.45
-11.37
-11.03
-11.32
-12.71
-15.05
-17.70
-20.05
-21.73
-22.75
-23.37
-23.79
-24.00
-23.74
-22.58
-20.12
-16.14
-10.83
-4.74
1.27
6.40
10.04
11.82
11.59
9.29
5.06
-0.65
-6.90
-12.47
-16.23
-17.90
-18.23
-18.66
-20.56
-24.26
-28.64
-31.71
-31.73
-28.39
-23.17
-18.76
-17.51
-20.32
-26.14
-32.49
-36.83
-37.66
-35.14
-30.75
-26.41
-23.33
-21.58
-20.08
-17.32
-12.27
-4.80
4.49
14.64
24.82
34.42
42.73
48.66
50.75
47.81
39.82
28.71
18.05
11.83
12.74
20.67
32.61
43.96
50.48
50.10
43.58
33.87
24.57
18.19
15.19
14.11
12.64
9.05
3.22
-3.37
-8.57
-10.60
-8.92
-4.27
1.92
8.40
14.68
21.22
29.04
38.96
51.11
64.79
78.36
89.53
95.61
94.21
84.30
67.03
45.86
25.47
10.08
1.76
-0.35
0.40
-0.21
-5.58
-17.18
-34.01
-53.32
-71.81
-86.81
-97.18
-103.31
-106.60
-108.37
-108.97
-107.44
-102.39
-93.16
-80.94
-68.67
-59.72
-56.22
-57.82
-61.95
-65.06
-64.43
-59.18
-50.27
-39.64
-29.05
-19.53
-11.38
-4.57
0.90
4.84
7.29
8.69
9.70
10.94
12.43
13.71
14.20
13.66
12.41
11.29
11.11
12.24
14.72
18.30
22.70
27.71
33.05
38.01
41.49
42.60
40.92
37.04
32.09
27.30
23.34
20.37
18.46
17.66
18.02
19.37
21.42
23.95
27.13
31.62
38.26
47.65
59.62
73.10
86.32
97.52
105.56
110.53
113.54
116.36
120.79
127.76
136.74
145.65
151.50
151.39
143.48
127.44
103.84
73.67
38.23
0.01
-36.68
-65.90
-81.77
-80.96
-64.79
-39.28
-13.18
4.89
8.98
-3.38
-31.84
-74.04
-125.90
-181.63
-233.52
-273.25
-293.99
-292.34
-269.05
-227.94
-174.14
-112.67
-48.37
13.38
66.20
103.37
119.63
113.09
86.01
44.41
-3.50
-49.20
-85.41
-107.18
-112.34
-101.49
-77.49
-44.49
-6.77
32.19
70.12
105.72
138.25
167.37
193.25
216.46
237.82
257.74
275.72
290.31
299.84
303.29
300.80
293.64
283.47
271.40
257.56
241.35
222.14
200.04
175.97
150.96
125.19
97.46
65.58
27.36
-18.26
-70.66
-127.65
-186.17
-242.68
-293.43
-334.36
-361.50
-371.81
-364.40
-341.50
-308.34
-271.78
-238.16
-211.30
-191.75
-177.26
-164.49
-150.76
-134.96
-117.52
-99.63
-82.25
-65.76
-50.26
-36.14
-24.41
-16.38
-12.89
-13.44
-16.00
-17.60
-15.52
-8.48
2.77
15.66
26.91
33.81
35.30
32.15
26.42
20.50
16.09
13.64
12.45
11.06
7.95
2.11
-6.65
-17.57
-29.36
-40.59
-50.05
-57.02
-61.07
-62.01
-59.63
-53.77
-44.56
-32.66
-19.49
-6.70
4.21
12.41
17.84
21.01
22.70
23.71
24.65
25.95
27.68
29.49
30.68
30.40
28.07
23.80
18.48
13.29
9.15
6.22
3.98
1.70
-1.00
-3.86
-6.21
-7.57
-8.02
-8.16
-8.60
-9.54
-10.52
-10.71
-9.50
-6.78
-2.77
2.25
8.27
15.59
24.15
33.15
41.03
46.04
46.93
43.59
37.15
29.62
23.00
18.56
16.54
16.24
16.40
15.79
13.72
10.18
5.74
0.95
-4.06
-9.75
-16.71
-25.20
-34.52
-43.09
-49.04
-51.08
-49.06
-44.07
-37.68
-31.29
-25.55
-20.19
-14.54
-8.36
-2.03
3.43
6.93
8.12
7.63
7.07
8.25
12.14
18.47
26.02
33.07
38.30
41.02
41.08
38.57
33.51
25.91
16.04
4.78
-6.55
-16.55
-24.18
-29.26
-32.17
-33.63
-34.10
-33.64
-32.03
-29.27
-25.68
-21.79
-18.15
-14.73
-10.80
-5.38
2.11
11.24
20.65
28.67
34.13
36.79
37.32
36.69
35.57
33.91
31.14
26.72
20.57
13.12
5.01
-3.48
-12.52
-22.71
-34.40
-47.21
-59.65
-69.43
-74.40
-73.50
-67.44
-58.51
-49.51
-42.37
-37.44
-33.51
-28.84
-22.36
-14.37
-6.13
0.93
6.22
10.33
14.42
19.01
23.44
26.08
25.62
22.42
18.81
18.10
22.56
31.96
43.42
53.08
58.00
57.42
52.54
45.07
35.93
24.99
11.87
-2.59
-15.91
-24.78
-26.61
-20.86
-9.13
5.96
22.10
37.91
52.66
65.48
74.99
79.66
78.93
73.83
66.95
61.33
59.28
61.30
65.94
70.47
71.85
67.90
57.96
42.99
25.28
7.61
-7.58
-19.07
-27.21
-33.49
-39.87
-47.61
-56.53
-65.15
-71.49
-74.20
-73.36
-70.40
-67.03
-64.26
-61.72
-57.85
-51.00
-40.57
-27.64
-14.62
-4.03
2.62
5.49
6.05
6.12
7.10
9.27
11.95
13.99
14.16
11.65
6.20
-1.63
-10.57
-18.87
-24.80
-27.24
-26.16
-22.41
-17.06
-10.80
-3.42
5.93
17.85
31.98
46.89
60.56
71.40
78.65
82.38
83.25
82.16
80.27
78.92
79.29
81.55
84.50
85.84
83.37
76.45
66.61
57.18
51.44
50.66
53.21
55.38
53.40
45.41
32.30
16.95
2.40
-9.64
-19.27
-27.87
-36.76
-46.20
-55.06
-61.38
-63.43
-60.55
-53.31
-43.10
-31.37
-19.20
-7.31
3.88
13.99
22.72
29.76
34.72
37.17
36.66
32.93
26.34
17.97
9.49
2.35
-2.80
-6.32
-9.55
-14.11
-21.01
-30.43
-41.77
-53.94
-65.77
-76.10
-83.81
-87.84
-87.37
-82.02
-71.98
-58.11
-41.91
-25.36
-10.76
-0.43
3.92
1.82
-5.58
-15.71
-25.47
-32.20
-34.81
-33.95
-31.39
-28.97
-27.79
-27.80
-28.31
-28.63
-28.59
-28.49
-28.64
-29.06
-29.41
-29.61
-30.19
-32.27
-36.83
-43.94
-52.28
-59.51
-63.14
-61.62
-55.10
-45.35
-34.98
-26.59
-21.70
-20.28
-20.88
-21.15
-18.83
-12.49
-2.32
9.68
20.48
27.38
29.18
26.75
22.62
19.48
18.82
20.38
22.62
23.98
24.16
24.37
26.58
32.13
40.60
49.83
57.04
60.27
59.28
55.34
50.17
44.81
39.36
33.14
25.75
17.79
10.79
6.64
6.48
10.31
17.08
25.20
33.13
39.98
45.37
49.19
51.41
51.91
50.62
47.56
43.02
37.51
31.72
26.43
22.30
19.83
19.16
20.04
21.68
22.89
22.40
19.14
12.70
3.44
-7.20
-17.08
-24.25
-27.74
-27.95
-26.28
-24.34
-23.04
-22.43
-22.07
-21.73
-21.72
-22.77
-25.51
-29.86
-34.98
-39.66
-43.02
-44.84
-45.47
-45.39
-44.65
-42.89
-39.77
-35.28
-29.93
-24.57
-20.07
-17.12
-16.22
-17.45
-20.47
-24.43
-27.92
-29.33
-27.26
-20.93
-10.50
2.97
17.79
32.21
44.77
54.77
62.08
67.20
70.89
73.80
76.31
78.31
79.27
78.61
76.02
71.53
65.37
57.70
48.49
37.80
26.05
14.05
2.85
-6.79
-14.89
-22.07
-28.92
-35.45
-40.69
-43.09
-41.47
-35.89
-27.64
-18.64
-10.34
-3.14
3.22
9.09
14.30
18.25
20.72
22.32
24.28
27.50
31.76
35.64
37.45
36.34
32.77
27.96
22.88
17.55
11.40
4.33
-2.35
-6.21
-5.17
0.91
9.70
17.37
20.66
18.77
13.69
9.02
8.16
12.78
22.41
35.29
49.38
63.19
76.12
88.28
100.30
113.15
128.12
146.36
168.12
191.95
214.21
229.62
232.45
218.14
184.66
133.09
67.40
-6.02
-79.11
-142.96
-188.95
-210.38
-204.09
-171.76
-119.85
-58.32
1.79
51.05
83.66
98.33
97.65
86.54
70.44
53.73
38.90
26.63
16.40
6.98
-2.92
-14.71
-29.86
-49.33
-73.01
-99.27
-125.18
-147.53
-164.09
-174.36
-179.25
-180.13
-177.57
-171.10
-159.75
-143.24
-122.69
-100.49
-79.27
-60.75
-45.36
-32.56
-21.77
-13.11
-7.51
-6.00
-8.60
-13.57
-17.74
-17.89
-12.35
-2.06
9.66
18.51
21.14
16.46
5.84
-7.81
-21.54
-33.35
-42.42
-48.88
-53.25
-56.18
-58.31
-60.20
-62.17
-64.08
-65.40
-65.48
-64.00
-61.14
-57.38
-53.27
-49.09
-44.75
-39.94
-34.40
-28.27
-22.03
-16.36
-11.92
-9.07
-7.60
-6.79
-5.73
-3.72
-0.67
2.86
6.14
8.63
10.31
11.44
12.15
12.07
10.43
6.59
0.65
-6.29
-12.48
-16.28
-16.83
-14.34
-9.79
-4.45
0.72
5.21
8.85
11.60
13.31
13.67
12.40
9.43
5.08
0.14
-4.28
-7.04
-7.40
-5.30
-1.38
3.33
7.90
11.81
14.98
17.58
19.72
21.30
21.97
21.46
19.62
16.61
12.75
8.39
3.93
-0.28
-3.84
-6.42
-7.83
-8.16
-7.79
-7.27
-7.11
-7.43
-7.90
-7.85
-6.68
-4.14
-0.60
3.10
6.12
7.99
8.79
9.05
9.33
9.85
10.41
10.57
9.96
8.68
7.23
6.51
7.28
9.87
13.87
18.13
21.18
21.76
19.57
15.34
10.66
7.10
5.55
5.80
6.72
7.08
6.19
4.26
2.15
0.70
0.29
0.58
0.73
-0.09
-2.14
-4.91
-7.27
-8.09
-6.90
-4.30
-1.75
-0.84
-2.46
-6.27
-10.84
-14.44
-15.84
-14.81
-12.03
-8.58
-5.36
-2.90
-1.42
-1.16
-2.41
-5.23
-9.17
-13.27
-16.32
-17.41
-16.26
-13.30
-9.32
-5.24
-1.64
1.11
2.86
3.50
3.10
1.95
0.63
-0.19
-0.01
1.11
2.58
3.47
2.97
0.74
-2.98
-7.54
-12.12
-15.97
-18.50
-19.34
-18.21
-15.21
-10.94
-6.56
-3.62
-3.59
-7.22
-14.18
-22.94
-31.29
-37.04
-38.78
-36.09
-29.56
-20.29
-9.57
1.42
11.51
19.57
24.58
25.86
23.34
17.74
10.54
3.56
-1.53
-3.80
-3.32
-0.96
2.00
4.60
6.36
7.41
8.05
8.30
7.85
6.19
3.10
-1.04
-5.30
-8.65
-10.46
-10.75
-10.07
-9.08
-8.12
-7.14
-5.95
-4.51
-3.05
-1.87
-1.04
-0.12
1.52
4.21
7.64
10.69
11.98
10.61
6.63
1.18
-4.16
-8.10
-10.24
-11.00
-11.06
-10.83
-10.19
-8.93
-7.31
-6.44
-7.85
-12.80
-21.34
-31.95
-42.02
-48.82
-50.59
-47.23
-40.17
-31.63
-23.71
-17.69
-13.82
-11.56
-9.99
-8.21
-5.68
-2.25
1.87
6.35
10.83
15.16
19.35
23.36
26.97
29.74
31.21
31.04
29.34
26.59
23.53
20.75
18.50
16.72
15.19
13.72
12.19
10.46
8.27
5.34
1.61
-2.52
-6.17
-8.35
-8.40
-6.30
-2.65
1.69
6.01
9.85
12.96
15.10
15.92
15.21
13.20
10.64
8.56
7.80
8.58
10.41
12.53
14.26
15.45
16.34
17.25
18.16
18.70
18.22
16.25
12.70
7.99
2.96
-1.37
-4.14
-4.83
-3.40
-0.21
4.19
9.19
14.30
19.13
23.31
26.52
28.64
29.92
30.88
32.17
34.04
36.06
37.38
37.22
35.57
33.49
32.78
35.03
40.68
48.57
56.23
61.04
61.43
57.69
51.80
46.55
44.28
46.12
51.77
59.89
68.46
74.85
76.01
69.17
53.08
29.14
1.64
-23.35
-40.36
-46.89
-44.41
-37.76
-32.92
-34.34
-43.04
-56.23
-68.73
-75.66
-75.10
-69.22
-63.39
-63.55
-73.12
-91.02
-112.33
-130.89
-142.66
-147.88
-150.72
-157.00
-171.12
-193.95
-222.31
-250.20
-270.97
-279.22
-272.25
-250.34
-216.15
-172.89
-123.01
-67.90
-9.17
49.25
100.48
135.94
148.93
138.67
112.00
81.31
59.09
52.04
58.85
72.28
84.49
92.07
97.14
104.45
116.56
130.88
140.61
139.05
123.91
98.82
71.10
47.48
30.55
18.44
7.06
-6.56
-22.38
-37.58
-48.80
-53.67
-51.77
-44.55
-34.12
-22.19
-9.55
4.02
18.95
35.11
51.38
65.63
75.39
78.90
75.78
67.29
55.82
44.04
34.14
27.33
23.81
22.96
23.84
25.53
27.50
29.42
30.98
31.61
30.45
26.53
19.44
9.82
-0.82
-10.50
-17.40
-20.43
-19.39
-14.91
-8.27
-1.02
5.51
10.56
14.29
17.58
21.55
26.79
32.94
38.84
43.31
45.91
47.17
48.16
49.63
51.46
52.68
52.20
49.73
46.28
43.96
45.06
50.79
60.68
72.54
83.39
90.70
93.30
91.66
87.51
83.22
81.20
83.67
92.28
107.53
128.12
150.67
170.32
182.40
184.27
176.36
161.67
144.16
126.67
110.00
93.27
75.12
55.01
33.31
10.60
-13.40
-40.44
-73.38
-115.13
-167.14
-227.86
-291.96
-350.65
-393.67
-412.36
-402.97
-368.32
-317.16
-261.12
-210.63
-171.56
-144.36
-125.63
-110.78
-96.51
-81.64
-66.53
-51.81
-37.45
-22.85
-7.48
8.29
23.04
34.73
41.90
44.36
43.43
41.31
40.18
41.18
43.97
47.13
48.86
47.92
44.09
38.34
32.32
27.67
25.34
25.11
25.77
25.55
22.88
17.18
9.18
0.72
-5.91
-9.02
-8.12
-4.15
0.95
5.22
7.65
8.61
9.48
11.87
16.85
24.41
33.51
42.43
49.34
52.69
51.45
45.33
34.93
21.69
7.71
-4.88
-14.56
-20.89
-24.55
-27.24
-30.90
-37.17
-46.79
-59.50
-74.34
-89.74
-103.87
-114.82
-120.75
-120.27
-113.04
-100.16
-84.07
-67.81
-53.91
-43.44
-35.77
-29.25
-22.20
-13.89
-4.64
4.64
13.00
19.87
25.10
28.59
30.32
30.46
29.45
28.00
26.74
25.86
25.10
23.93
22.02
19.51
16.81
14.24
11.66
8.45
3.76
-2.80
-10.86
-19.13
-25.83
-29.25
-28.27
-22.66
-13.07
-0.86
12.01
23.38
31.27
34.38
32.35
25.92
17.04
8.50
3.33
3.91
10.96
22.91
36.21
46.45
50.06
45.46
33.41
16.42
-2.19
-19.27
-32.17
-38.88
-38.31
-30.61
-17.67
-2.96
9.36
15.89
15.27
8.36
-2.42
-14.30
-24.93
-32.71
-36.47
-35.33
-28.74
-17.08
-1.77
14.83
30.04
41.64
48.42
50.35
48.26
43.38
36.87
29.80
23.17
17.95
14.95
14.26
15.12
15.98
15.14
11.66
5.98
-0.31
-5.26
-7.87
-8.60
-9.27
-11.83
-17.22
-24.53
-31.42
-35.29
-34.45
-28.85
-19.73
-8.93
1.99
12.08
21.00
28.59
34.62
38.67
40.29
39.30
36.05
31.60
27.40
24.89
24.81
26.73
29.13
30.01
27.95
22.91
16.34
10.35
6.48
4.77
3.78
1.58
-3.12
-10.14
-18.05
-25.02
-29.60
-31.16
-29.64
-25.27
-18.33
-9.48
-0.01
8.39
14.15
16.59
16.43
15.48
15.74
18.53
23.76
30.01
35.33
37.96
37.15
33.32
27.58
21.30
15.64
11.25
8.50
7.54
8.11
9.41
10.05
8.39
3.33
-5.20
-16.03
-27.31
-37.05
-43.72
-46.32
-44.29
-37.59
-26.78
-13.38
0.25
11.68
19.30
23.02
24.01
23.77
23.16
22.13
20.09
16.88
13.28
10.64
10.09
11.82
14.90
17.90
19.79
20.34
20.07
19.70
19.44
18.80
16.77
12.34
5.05
-4.81
-16.23
-27.58
-36.83
-41.97
-41.52
-35.16
-24.05
-10.65
2.16
12.07
18.33
21.71
23.84
26.23
29.49
33.29
36.88
39.67
41.73
43.69
46.20
49.51
53.19
56.34
58.05
57.75
55.55
52.12
48.52
45.66
43.88
42.82
41.55
39.12
35.20
30.43
26.08
23.59
23.98
27.56
34.16
43.56
55.70
70.62
88.05
107.15
126.40
143.97
158.15
167.64
171.62
169.63
161.57
147.83
129.39
107.87
85.13
62.71
41.42
21.22
1.53
-18.08
-37.41
-55.58
-71.33
-83.82
-92.98
-99.64
-105.06
-110.35
-115.85
-121.00
-124.65
-125.54
-122.74
-116.06
-106.04
-93.76
-80.58
-67.95
-57.12
-48.97
-43.82
-41.49
-41.26
-42.14
-43.14
-43.57
-43.10
-41.90
-40.46
-39.45
-39.49
-40.81
-43.11
-45.61
-47.40
-47.77
-46.67
-44.77
-43.24
-43.24
-45.49
-50.00
-56.11
-62.75
-68.73
-72.94
-74.63
-73.49
-69.81
-64.44
-58.54
-53.16
-48.76
-45.11
-41.50
-37.28
-32.12
-26.00
-18.77
-9.89
1.62
16.53
34.76
54.93
74.64
91.22
102.57
107.66
106.72
100.78
91.50
80.74
70.42
62.12
56.83
54.49
54.13
54.24
53.48
51.28
48.09
45.01
43.26
43.54
45.85
49.51
53.54
57.07
59.45
60.32
59.46
56.56
51.20
43.05
32.08
18.75
3.96
-11.24
-26.06
-40.19
-53.67
-66.63
-78.86
-89.85
-98.88
-105.49
-109.59
-111.34
-110.89
-108.17
-103.05
-95.77
-87.25
-79.02
-72.65
-69.07
-67.96
-67.87
-66.84
-63.22
-56.33
-46.76
-35.95
-25.60
-17.02
-10.73
-6.38
-3.04
0.40
4.77
10.28
16.64
23.28
29.76
35.83
41.29
45.79
48.75
49.48
47.66
43.53
37.91
31.87
26.24
21.36
17.00
12.73
8.31
3.87
-0.20
-3.61
-6.48
-9.34
-12.92
-17.63
-23.38
-29.55
-35.29
-39.94
-43.34
-45.86
-48.09
-50.48
-52.98
-55.12
-56.21
-55.80
-53.92
-51.05
-47.86
-44.86
-42.20
-39.68
-36.94
-33.83
-30.65
-27.98
-26.34
-25.51
-24.45
-21.68
-16.12
-7.80
1.98
11.17
18.01
21.90
23.40
23.61
23.13
21.40
16.90
8.15
-5.12
-21.44
-37.91
-51.31
-59.26
-60.85
-56.56
-47.72
-35.93
-22.60
-8.98
3.73
14.43
22.31
27.34
30.34
32.76
36.03
40.81
46.76
52.73
57.45
60.20
61.07
60.80
60.26
60.00
59.95
59.45
57.43
52.78
44.83
33.69
20.45
7.08
-4.15
-11.45
-14.10
-12.60
-8.40
-3.35
0.67
1.76
-1.92
-12.11
-29.91
-55.17
-86.06
-119.24
-150.56
-176.03
-192.65
-198.74
-194.18
-180.15
-159.03
-134.13
-108.95
-86.41
-68.09
-53.97
-42.88
-33.28
-23.99
-14.46
-4.65
5.49
16.18
27.64
39.69
51.39
61.26
67.79
70.12
68.26
62.97
55.34
46.45
37.40
29.41
23.87
22.13
24.97
32.12
42.24
53.23
63.11
70.65
75.59
78.30
79.36
79.04
77.40
74.56
70.88
66.98
63.45
60.58
58.17
55.76
52.96
49.79
46.53
43.55
41.00
38.74
36.56
34.36
32.25
30.47
29.24
28.64
28.78
29.82
31.89
34.74
37.61
39.24
38.60
35.51
31.09
27.52
27.03
30.78
38.44
48.34
58.17
65.77
69.53
68.28
61.25
48.08
29.03
5.18
-21.62
-49.33
-76.21
-101.04
-122.99
-141.42
-155.62
-164.85
-168.78
-167.65
-162.50
-154.82
-146.02
-137.03
-127.95
-117.97
-105.70
-89.75
-69.41
-45.25
-19.07
6.48
28.96
46.82
60.06
70.44
80.71
93.24
108.60
125.03
139.09
147.45
148.72
144.18
137.08
130.79
127.23
126.16
125.99
125.07
122.65
118.96
114.22
107.96
98.89
85.71
68.08
47.03
24.60
3.01
-15.98
-31.44
-43.28
-52.07
-58.62
-64.00
-69.26
-75.10
-81.29
-86.48
-88.74
-86.23
-78.24
-65.61
-50.43
-35.35
-22.39
-12.43
-5.10
0.51
5.21
9.20
12.33
14.52
16.17
18.06
20.88
24.69
28.75
31.66
31.91
28.53
21.50
11.81
0.94
-9.69
-19.21
-27.40
-34.69
-42.00
-50.44
-61.04
-74.27
-89.61
-105.26
-118.44
-125.95
-125.37
-115.91
-98.85
-77.10
-54.33
-33.74
-17.28
-5.49
2.30
7.30
10.93
14.59
19.59
26.99
37.32
50.19
64.30
77.72
88.52
95.48
98.36
97.88
95.17
91.38
87.26
83.27
79.67
76.67
74.35
72.54
70.60
67.63
62.74
55.47
46.05
35.45
24.87
15.47
7.95
2.40
-1.38
-3.80
-5.17
-5.62
-5.01
-3.00
0.71
6.15
12.87
19.94
26.14
30.30
31.72
30.47
27.29
23.15
18.84
14.65
10.50
6.31
2.17
-1.71
-5.22
-8.44
-11.51
-14.39
-16.74
-17.97
-17.52
-15.23
-11.54
-7.43
-4.02
-2.02
-1.50
-1.92
-2.52
-2.70
-2.18
-1.07
0.39
1.93
3.49
5.14
6.94
8.67
9.83
9.74
7.83
3.84
-2.08
-9.40
-17.47
-25.76
-33.98
-42.19
-50.55
-59.02
-67.08
-73.67
-77.38
-77.02
-72.09
-63.07
-51.20
-38.01
-24.90
-12.81
-2.32
6.05
11.75
14.43
14.26
12.09
9.28
7.12
6.37
6.95
8.16
9.24
9.72
9.66
9.42
9.44
9.74
9.85
8.98
6.42
2.07
-3.39
-8.58
-11.89
-11.99
-8.38
-1.49
7.36
16.46
24.19
29.63
32.79
34.64
36.82
40.97
48.01
57.63
68.31
77.97
84.86
88.43
89.52
89.83
91.00
93.94
98.56
104.24
110.41
117.12
125.01
134.80
146.85
160.95
176.55
193.01
209.81
226.27
241.22
252.78
258.59
256.52
245.44
225.80
199.48
169.22
137.68
106.63
76.73
47.60
18.40
-11.72
-43.39
-77.19
-113.89
-154.43
-199.41
-248.04
-297.29
-341.72
-374.93
-391.72
-390.18
-372.50
-343.91
-310.43
-276.68
-245.15
-216.56
-191.06
-168.75
-149.52
-132.52
-115.96
-97.69
-76.30
-52.09
-27.09
-4.38
13.19
24.02
28.12
26.92
22.64
17.65
13.80
12.07
12.48
14.32
16.57
18.30
18.98
18.31
16.21
12.85
8.69
4.40
0.46
-3.06
-6.65
-10.93
-16.11
-21.67
-26.48
-29.30
-29.52
-27.48
-24.23
-21.04
-18.78
-17.67
-17.39
-17.35
-17.02
-16.20
-15.10
-14.13
-13.71
-14.06
-14.96
-15.83
-15.91
-14.66
-11.86
-7.85
-3.28
1.08
4.58
6.77
7.44
6.71
5.07
3.44
2.92
4.57
8.91
15.78
24.29
33.14
41.04
47.08
50.95
52.84
53.28
52.77
51.51
49.29
45.55
39.69
31.43
21.16
9.97
-0.59
-9.07
-14.72
-17.68
-18.86
-19.55
-20.91
-23.72
-28.31
-34.58
-42.00
-49.65
-56.24
-60.44
-61.22
-58.25
-52.00
-43.47
-33.86
-24.16
-15.03
-6.95
-0.36
4.22
6.39
6.08
3.77
0.38
-2.98
-5.51
-6.85
-7.17
-6.87
-6.40
-6.09
-6.11
-6.61
-7.75
-9.63
-12.36
-15.96
-20.38
-25.40
-30.57
-35.16
-38.14
-38.44
-35.32
-28.72
-19.47
-9.14
0.54
8.29
13.66
17.03
19.19
20.77
21.95
22.36
21.37
18.59
14.24
9.24
4.96
2.57
2.43
3.90
5.56
5.82
3.64
-1.02
-7.36
-14.18
-20.38
-25.32
-28.79
-30.77
-31.23
-30.12
-27.42
-23.26
-17.93
-11.78
-5.15
1.69
8.40
14.51
19.28
21.83
21.37
17.76
11.76
5.06
-0.35
-2.97
-2.51
-0.15
2.13
2.41
-0.19
-5.30
-11.69
-17.89
-22.95
-26.57
-28.88
-30.14
-30.52
-30.07
-28.72
-26.27
-22.33
-16.44
-8.47
1.06
10.90
19.48
25.51
28.55
28.98
27.74
25.77
23.70
21.90
20.49
19.51
18.93
18.59
18.20
17.37
15.64
12.67
8.35
2.96
-2.76
-7.85
-11.56
-13.84
-15.49
-17.73
-21.33
-25.79
-29.20
-29.13
-23.96
-13.96
-1.31
11.01
20.67
26.97
30.84
33.70
36.45
39.02
40.68
40.81
39.30
36.54
32.93
28.53
23.13
16.75
10.07
4.47
1.37
1.34
3.47
5.59
5.15
0.52
-8.25
-19.33
-29.87
-37.09
-39.06
-35.30
-26.63
-14.81
-2.04
9.54
18.16
22.80
23.48
21.23
17.72
14.61
12.89
12.55
12.86
12.97
12.50
11.71
11.24
11.56
12.61
13.84
14.61
14.62
14.08
13.32
12.43
11.09
8.86
5.83
3.00
2.20
5.51
14.41
29.01
47.80
68.13
86.96
101.75
111.07
114.67
113.11
107.30
97.98
85.65
70.68
53.64
35.63
18.19
3.00
-8.79
-17.08
-22.97
-28.26
-34.71
-43.26
-53.71
-64.85
-75.24
-83.82
-90.30
-94.75
-97.06
-96.49
-91.99
-82.97
-70.08
-55.43
-41.85
-31.67
-25.86
-23.64
-23.16
-22.47
-20.33
-16.53
-11.70
-6.82
-2.82
-0.23
0.85
0.67
-0.41
-2.02
-3.91
-5.95
-7.92
-9.59
-10.63
-11.02
-11.09
-11.53
-13.04
-15.84
-19.46
-22.81
-24.72
-24.39
-21.68
-16.99
-11.02
-4.41
2.22
8.21
12.87
15.61
16.13
14.62
11.81
8.56
5.64
3.39
1.85
0.86
0.34
0.21
0.42
0.73
0.77
0.14
-1.32
-3.57
-6.43
-9.79
-13.58
-17.58
-21.23
-23.58
-23.65
-20.96
-15.72
-8.81
-1.36
5.75
12.13
17.76
22.80
27.36
31.54
35.51
39.57
44.06
49.04
54.26
59.10
62.85
65.07
65.66
64.95
63.60
62.37
61.86
62.39
63.79
65.40
66.23
65.30
61.89
55.86
47.62
37.99
28.12
19.34
13.03
10.39
12.00
17.56
25.77
34.63
42.09
46.71
48.01
46.43
42.97
38.59
33.93
29.23
24.43
19.43
14.25
9.13
4.57
1.15
-0.73
-1.03
-0.25
0.78
1.17
0.44
-1.41
-3.96
-6.61
-9.16
-11.72
-14.66
-18.22
-22.22
-26.10
-29.18
-30.96
-31.30
-30.44
-28.77
-26.73
-24.53
-22.25
-19.74
-16.87
-13.56
-9.92
-6.22
-2.74
0.34
3.21
6.33
10.22
15.05
20.41
25.24
28.28
28.79
27.06
24.49
23.22
25.34
32.09
43.45
57.95
72.91
85.01
90.84
87.65
74.20
51.45
22.89
-6.04
-29.40
-43.02
-46.13
-41.95
-36.41
-35.61
-43.33
-59.70
-81.59
-104.42
-124.29
-139.31
-149.83
-157.66
-164.96
-173.47
-184.10
-196.74
-210.43
-223.44
-233.71
-239.38
-239.23
-232.74
-220.02
-201.58
-178.36
-151.91
-124.45
-98.60
-76.60
-59.58
-47.06
-37.42
-28.84
-20.16
-11.44
-3.49
2.91
7.73
11.94
17.05
24.26
33.82
44.75
55.13
62.84
66.34
65.19
60.12
52.68
44.71
37.85
33.35
31.84
33.42
37.54
43.04
48.38
52.13
53.57
53.08
52.11
52.56
56.02
63.20
73.71
86.49
100.29
113.97
126.66
137.69
146.52
152.88
156.79
158.62
159.00
158.50
157.18
154.50
149.39
140.75
128.07
111.84
93.58
75.36
59.10
45.97
36.10
28.86
23.31
18.65
14.46
10.60
7.13
4.14
1.70
-0.17
-1.51
-2.57
-3.77
-5.56
-8.28
-11.86
-15.93
-19.92
-23.37
-26.20
-28.65
-31.13
-33.91
-36.94
-39.87
-42.27
-43.80
-44.33
-43.87
-42.37
-39.72
-35.74
-30.56
-24.76
-19.35
-15.46
-13.87
-14.77
-17.83
-22.51
-28.43
-35.38
-43.07
-50.86
-57.63
-62.12
-63.44
-61.57
-57.39
-52.38
-47.95
-45.09
-44.18
-45.18
-47.87
-51.92
-56.77
-61.52
-65.03
-66.22
-64.39
-59.58
-52.55
-44.55
-37.00
-31.07
-27.44
-26.05
-26.16
-26.63
-26.23
-24.21
-20.44
-15.52
-10.39
-5.90
-2.42
0.23
2.67
5.67
9.96
16.06
24.07
33.38
42.58
49.60
52.46
50.27
44.10
37.02
33.27
36.54
48.47
67.84
91.22
114.45
134.44
150.18
162.66
173.94
186.08
200.38
217.10
235.51
253.84
269.44
279.09
279.69
269.34
248.04
217.71
181.42
142.01
101.00
58.14
12.03
-38.53
-93.03
-148.38
-199.20
-239.26
-263.58
-270.16
-260.71
-239.86
-213.40
-186.26
-161.30
-139.32
-119.88
-102.43
-86.84
-73.26
-61.72
-51.62
-41.97
-31.78
-20.65
-9.07
1.71
10.19
15.24
16.59
14.90
11.35
7.03
2.38
-2.93
-9.80
-19.09
-31.05
-45.10
-59.83
-73.41
-84.06
-90.42
-91.88
-88.69
-81.98
-73.41
-64.80
-57.56
-52.33
-48.89
-46.41
-44.01
-41.14
-37.76
-34.16
-30.66
-27.35
-23.96
-20.05
-15.11
-8.73
-0.66
9.11
20.29
32.15
43.59
53.38
60.47
64.32
65.09
63.55
60.75
57.71
55.16
53.42
52.34
51.42
49.92
47.15
42.64
36.41
28.92
20.94
13.36
6.97
2.30
-0.43
-1.37
-1.11
-0.51
-0.57
-2.06
-5.31
-9.93
-14.96
-19.10
-21.15
-20.45
-17.03
-11.57
-5.14
1.04
5.95
8.87
9.45
7.74
4.12
-0.74
-5.99
-10.78
-14.35
-16.36
-16.82
-16.18
-15.16
-14.60
-15.32
-17.75
-21.73
-26.54
-31.00
-33.93
-34.71
-33.36
-30.50
-26.84
-22.78
-18.31
-13.25
-7.60
-1.65
4.04
9.04
13.23
16.79
19.92
22.55
24.30
24.63
23.25
20.17
15.77
10.50
4.66
-1.67
-8.56
-16.02
-23.97
-32.18
-40.38
-48.17
-55.20
-61.01
-65.25
-67.85
-69.03
-69.40
-69.68
-70.39
-71.49
-72.32
-71.74
-68.54
-61.92
-51.74
-38.62
-23.62
-7.97
7.33
21.64
34.66
46.36
56.75
65.83
73.43
79.30
83.08
84.55
83.82
81.65
79.41
78.80
81.24
87.02
94.98
102.55
106.53
104.15
93.93
76.18
52.75
26.32
-0.35
-25.02
-46.30
-63.74
-77.75
-89.55
-100.85
-113.34
-127.87
-143.77
-158.71
-169.43
-173.13
-168.94
-158.57
-145.88
-135.29
-130.06
-131.06
-136.99
-145.37
-154.08
-162.18
-169.76
-177.06
-183.56
-187.77
-187.63
-181.49
-168.60
-149.20
-124.08
-94.13
-60.27
-23.81
13.13
47.52
75.89
95.26
104.07
102.80
93.99
81.62
70.13
63.14
62.62
68.61
79.77
94.25
110.46
127.30
143.96
159.39
172.19
181.06
185.48
186.26
185.50
185.77
189.07
195.98
205.29
214.46
220.63
221.65
216.92
207.32
194.70
180.85
166.80
152.48
137.10
119.81
99.91
76.99
50.67
20.65
-13.02
-49.39
-86.36
-121.04
-150.48
-172.64
-186.88
-193.70
-194.27
-189.78
-181.19
-169.32
-155.05
-139.37
-123.33
-107.78
-93.12
-79.41
-66.52
-54.48
-43.57
-34.22
-26.54
-20.08
-13.89
-6.86
1.69
11.67
22.24
32.22
40.65
47.19
52.07
55.79
58.77
60.97
61.97
61.11
57.90
52.29
44.91
37.20
31.26
29.27
32.79
42.18
56.22
72.35
87.14
97.10
99.32
92.11
75.29
50.23
19.66
-12.87
-43.69
-69.82
-89.52
-102.49
-109.67
-112.63
-112.98
-112.01
-110.50
-108.82
-107.17
-105.80
-105.01
-105.17
-106.37
-108.16
-109.50
-108.93
-104.97
-96.71
-84.05
-67.71
-48.91
-28.87
-8.65
10.91
29.04
44.94
57.89
67.49
73.84
77.50
79.23
79.65
78.95
77.00
73.44
68.09
61.08
52.94
44.37
36.17
28.97
23.15
18.83
15.92
14.13
13.08
12.30
11.19
9.18
5.78
0.93
-4.84
-10.36
-14.06
-14.48
-10.89
-3.56
6.25
16.74
26.21
33.61
38.70
41.80
43.47
44.10
43.79
42.49
40.29
37.54
34.82
32.71
31.45
30.81
30.18
28.92
26.64
23.36
19.37
14.83
9.44
2.43
-7.00
-19.08
-32.87
-46.30
-56.77
-62.15
-61.68
-56.21
-47.74
-38.38
-29.49
-21.43
-13.78
-6.09
1.63
8.82
14.70
18.70
20.69
20.90
19.64
17.11
13.43
8.89
4.07
-0.13
-2.97
-4.18
-4.24
-4.17
-5.06
-7.57
-11.62
-16.51
-21.33
-25.44
-28.59
-30.81
-32.04
-31.92
-29.93
-25.62
-19.07
-10.84
-1.80
7.23
15.66
23.18
29.60
34.69
38.22
40.13
40.69
40.38
39.72
38.94
37.77
35.62
31.89
26.33
19.29
11.60
4.25
-1.91
-6.51
-9.67
-12.01
-14.24
-16.97
-20.31
-23.84
-26.71
-27.95
-26.84
-23.13
-17.18
-9.73
-1.62
6.49
14.26
21.59
28.45
34.73
40.04
43.93
46.01
46.17
44.73
42.22
39.33
36.53
34.10
32.11
30.50
29.15
27.78
25.96
23.12
18.77
12.77
5.47
-2.28
-9.46
-15.10
-18.50
-19.23
-17.10
-12.27
-5.38
2.41
9.65
15.08
18.13
19.06
18.79
18.36
18.42
19.00
19.62
19.67
18.72
16.76
14.03
10.85
7.35
3.44
-1.11
-6.44
-12.39
-18.50
-24.10
-28.62
-31.97
-34.59
-37.20
-40.25
-43.48
-45.83
-45.97
-43.07
-37.35
-30.06
-22.77
-16.62
-11.73
-7.31
-2.23
4.20
11.78
19.62
26.55
31.73
34.99
36.65
37.19
36.98
36.19
35.00
33.56
32.07
30.61
29.12
27.38
25.15
22.26
18.67
14.54
10.14
5.71
1.51
-2.22
-5.10
-6.76
-6.93
-5.65
-3.35
-0.62
2.01
4.38
6.75
9.55
13.06
17.03
20.51
22.14
20.87
16.47
9.84
2.58
-3.70
-8.07
-10.50
-11.68
-12.54
-13.90
-16.22
-19.65
-24.18
-29.66
-35.87
-42.30
-48.19
-52.59
-54.62
-53.66
-49.61
-42.94
-34.55
-25.44
-16.41
-7.84
0.18
7.59
14.16
19.37
22.72
24.07
23.91
23.24
23.17
24.46
27.03
30.01
32.03
31.74
28.44
22.31
14.43
6.31
-0.81
-6.31
-10.38
-13.62
-16.42
-18.68
-19.86
-19.42
-17.31
-14.16
-11.05
-8.84
-7.75
-7.17
-6.07
-3.54
0.64
5.90
11.07
14.98
16.90
16.74
14.92
11.97
8.25
3.88
-1.02
-6.13
-10.88
-14.64
-17.10
-18.48
-19.58
-21.39
-24.66
-29.42
-34.86
-39.47
-41.66
-40.35
-35.32
-27.35
-17.91
-8.54
-0.33
6.33
11.73
16.50
21.25
26.29
31.54
36.62
40.91
43.74
44.59
43.22
39.79
34.78
28.97
23.16
18.02
13.94
10.97
8.86
7.07
4.88
1.54
-3.42
-9.90
-17.06
-23.48
-27.55
-28.11
-24.90
-18.79
-11.37
-4.37
0.96
4.18
5.53
5.56
4.78
3.47
1.80
0.05
-1.41
-2.17
-2.07
-1.27
-0.31
0.18
-0.25
-1.73
-4.10
-6.98
-10.04
-13.06
-15.91
-18.48
-20.56
-21.65
-21.06
-17.97
-11.77
-2.49
9.04
21.22
32.06
39.78
43.37
42.93
39.55
34.84
30.40
27.27
25.73
25.42
25.58
25.44
24.38
22.03
18.29
13.34
7.61
1.82
-3.27
-6.94
-8.94
-9.62
-9.98
-11.34
-14.78
-20.55
-27.74
-34.58
-39.02
-39.58
-35.93
-28.93
-20.21
-11.43
-3.73
2.54
7.60
11.71
14.91
16.94
17.58
17.07
16.17
15.93
17.02
19.27
21.64
22.72
21.46
17.68
12.20
6.38
1.46
-1.97
-4.17
-6.04
-8.56
-12.29
-17.00
-21.76
-25.20
-25.98
-23.19
-16.71
-7.36
3.16
12.77
19.54
22.35
21.29
17.45
12.46
7.78
4.21
1.89
0.60
0.21
0.74
2.15
4.11
5.94
6.98
6.98
6.27
5.30
3.98
1.45
-3.56
-11.71
-22.19
-32.60
-39.80
-41.20
-35.98
-25.34
-11.90
1.36
12.18
19.47
23.27
24.31
23.65
22.48
21.94
22.94
25.85
30.28
35.11
38.96
40.85
40.70
39.35
38.21
38.42
40.23
42.92
45.23
46.16
45.67
44.74
45.01
48.08
54.82
65.07
77.77
91.36
104.31
115.59
125.09
133.78
143.59
156.86
175.33
198.91
224.85
247.96
261.81
260.94
242.80
208.86
164.16
115.63
69.80
30.93
0.12
-24.43
-46.26
-69.28
-96.44
-128.86
-165.63
-204.14
-240.84
-272.15
-295.30
-308.59
-311.34
-303.71
-286.53
-261.31
-230.21
-196.00
-161.54
-129.17
-100.14
-74.53
-51.66
-30.94
-12.48
2.85
13.86
19.89
21.30
19.48
16.24
12.95
10.03
6.92
2.61
-3.69
-12.13
-22.19
-33.09
-44.18
-55.01
-65.31
-74.72
-82.65
-88.44
-91.64
-92.16
-90.38
-86.79
-81.76
-75.42
-67.86
-59.34
-50.45
-41.98
-34.57
-28.45
-23.49
-19.46
-16.27
-14.11
-13.23
-13.59
-14.77
-15.99
-16.55
-16.22
-15.35
-14.61
-14.59
-15.52
-17.26
-19.58
-22.49
-26.24
-30.92
-36.14
-40.71
-42.93
-41.30
-35.26
-25.52
-13.95
-2.69
6.63
13.35
17.82
20.79
23.00
24.88
26.52
27.85
28.83
29.43
29.58
29.09
27.71
25.24
21.66
17.26
12.52
8.06
4.33
1.49
-0.62
-2.46
-4.64
-7.68
-11.78
-16.69
-21.64
-25.56
-27.26
-25.74
-20.47
-11.62
-0.09
12.59
24.66
34.60
41.45
44.93
45.31
43.23
39.45
34.82
30.28
26.78
25.03
25.19
26.72
28.44
29.05
27.78
24.69
20.62
16.64
13.48
11.17
9.14
6.70
3.44
-0.38
-3.93
-6.04
-5.63
-2.09
4.58
13.63
23.88
34.07
43.35
51.59
59.36
67.59
76.89
87.17
97.52
106.65
113.51
117.74
119.82
120.82
121.89
124.03
127.93
134.04
142.49
152.71
162.91
169.93
169.79
159.13
136.76
104.58
67.27
30.66
-0.29
-22.98
-37.45
-45.52
-49.48
-50.99
-50.73
-48.73
-44.91
-39.46
-33.06
-26.66
-21.26
-17.72
-16.44
-17.28
-19.56
-22.33
-24.72
-26.22
-26.66
-26.18
-24.93
-23.20
-21.42
-20.22
-20.37
-22.37
-26.21
-31.23
-36.36
-40.62
-43.50
-45.14
-46.00
-46.58
-47.02
-47.19
-46.74
-45.38
-42.94
-39.41
-34.93
-29.84
-24.74
-20.44
-17.69
-16.94
-18.10
-20.49
-23.15
-25.15
-25.91
-25.20
-23.11
-19.88
-15.93
-11.86
-8.42
-6.30
-5.81
-6.78
-8.71
-10.98
-13.31
-15.72
-18.39
-21.39
-24.42
-27.00
-28.68
-29.30
-28.99
-27.95
-26.19
-23.46
-19.54
-14.50
-8.89
-3.71
-0.11
0.97
-0.93
-5.50
-11.69
-17.87
-22.15
-23.06
-20.04
-13.83
-6.27
0.31
4.01
3.93
0.40
-5.49
-12.44
-19.25
-24.95
-28.61
-29.38
-26.84
-21.42
-14.78
-9.34
-7.53
-10.64
-18.18
-28.08
-37.58
-44.34
-47.21
-46.31
-42.42
-36.61
-29.81
-22.92
-16.99
-13.14
-12.37
-15.12
-21.02
-28.88
-37.12
-44.20
-49.12
-51.69
-52.57
-52.96
-54.13
-56.90
-61.34
-66.79
-72.19
-76.43
-78.66
-78.36
-75.41
-70.07
-63.14
-56.05
-50.54
-48.11
-49.35
-53.45
-58.27
-61.09
-59.59
-52.64
-40.66
-25.34
-9.00
6.04
17.96
25.81
29.70
30.81
31.07
32.52
36.43
42.68
49.66
54.90
56.19
52.55
44.79
35.13
26.35
20.72
19.21
21.30
25.23
28.56
28.99
25.06
16.75
5.65
-5.55
-13.89
-17.19
-14.78
-7.65
2.08
12.03
20.42
26.54
30.73
33.91
37.04
40.67
44.76
48.84
52.21
54.27
54.69
53.45
50.75
46.90
42.26
37.14
31.83
26.41
20.85
15.06
9.13
3.48
-1.20
-4.22
-5.27
-4.72
-3.65
-3.52
-5.61
-10.47
-17.72
-26.12
-33.90
-39.23
-40.63
-37.25
-29.16
-17.33
-3.58
9.90
21.13
28.90
33.06
34.43
34.29
33.78
33.58
33.84
34.40
35.02
35.50
35.66
35.29
34.24
32.59
30.77
29.49
29.47
31.08
34.08
37.72
40.90
42.54
41.78
38.15
31.71
23.14
13.71
5.01
-1.48
-4.90
-5.14
-2.81
1.23
6.17
11.59
17.29
23.12
28.68
33.23
35.72
34.97
29.89
19.83
4.80
-14.31
-35.81
-57.45
-76.97
-92.58
-103.27
-108.85
-109.73
-106.74
-100.96
-93.56
-85.84
-78.93
-73.69
-70.53
-69.32
-69.48
-70.08
-70.08
-68.43
-64.39
-57.76
-48.95
-38.86
-28.54
-18.82
-10.07
-2.21
5.03
11.80
17.87
22.74
25.96
27.34
27.15
26.06
24.87
24.18
24.23
24.75
25.14
24.76
23.22
20.54
17.11
13.43
9.87
6.59
3.53
0.50
-2.72
-6.30
-10.31
-14.60
-18.64
-21.62
-22.62
-21.00
-16.74
-10.52
-3.46
3.42
9.56
14.99
20.02
24.92
29.60
33.67
36.62
38.20
38.52
38.02
37.26
36.61
36.08
35.39
34.05
31.71
28.28
24.11
19.79
15.96
13.00
10.79
8.81
6.30
2.60
-2.57
-8.97
-15.81
-21.97
-26.30
-28.04
-27.15
-24.31
-20.59
-17.03
-14.09
-11.51
-8.46
-3.94
2.73
11.65
22.19
33.14
42.92
49.86
52.66
50.76
44.73
36.24
27.67
21.34
18.76
20.15
24.55
30.15
34.95
37.31
36.27
31.70
24.33
15.45
6.63
-0.71
-5.68
-8.22
-9.03
-9.34
-10.39
-12.96
-16.95
-21.39
-24.85
-25.89
-23.62
-18.00
-9.74
-0.05
9.80
18.85
26.53
32.68
37.36
40.83
43.40
45.50
47.49
49.57
51.74
53.77
55.43
56.52
57.07
57.24
57.30
57.53
58.07
59.00
60.32
62.06
64.15
66.32
67.88
67.87
65.25
59.27
49.85
37.59
23.72
9.78
-2.64
-12.22
-18.12
-20.26
-19.35
-16.81
-14.40
-13.70
-15.62
-20.20
-26.79
-34.39
-42.05
-49.06
-54.89
-59.09
-61.33
-61.55
-60.10
-57.75
-55.35
-53.59
-52.67
-52.30
-51.95
-51.12
-49.54
-47.17
-44.19
-40.98
-38.04
-36.01
-35.48
-36.78
-39.71
-43.52
-47.04
-49.03
-48.54
-45.17
-39.12
-31.06
-21.96
-12.81
-4.46
2.61
8.21
12.44
15.51
17.61
18.97
19.71
19.99
19.94
19.67
19.29
18.86
18.37
17.72
16.77
15.45
13.84
12.25
11.10
10.59
10.48
10.03
8.25
4.36
-1.86
-9.93
-18.79
-27.17
-33.73
-37.27
-36.93
-32.45
-24.35
-13.94
-2.91
7.20
15.39
21.29
24.96
26.70
27.05
26.87
27.26
29.23
33.20
38.70
44.61
49.80
53.73
56.67
59.31
62.09
64.87
66.99
67.92
67.79
67.52
68.28
70.79
74.76
78.98
81.86
82.24
79.95
75.94
72.01
70.11
71.67
77.07
85.47
95.20
104.44
112.05
117.99
123.27
129.28
136.95
145.97
154.73
160.78
161.84
156.78
145.86
130.59
112.82
94.05
74.91
55.30
34.90
13.83
-7.00
-26.00
-41.55
-52.71
-59.74
-63.98
-67.25
-71.05
-75.95
-81.58
-87.22
-92.53
-97.92
-104.36
-112.63
-122.54
-132.75
-141.20
-146.04
-146.37
-142.44
-135.19
-125.54
-113.95
-100.49
-85.24
-68.70
-51.96
-36.21
-22.33
-10.56
-0.62
7.85
14.85
19.94
22.45
21.98
18.72
13.50
7.35
1.17
-4.70
-10.50
-16.73
-23.74
-31.38
-38.96
-45.55
-50.47
-53.56
-55.27
-56.26
-57.08
-57.91
-58.62
-59.05
-59.27
-59.62
-60.63
-62.73
-66.10
-70.56
-75.61
-80.59
-84.69
-87.03
-86.82
-83.65
-77.79
-70.26
-62.62
-56.32
-52.21
-50.13
-49.19
-48.14
-46.09
-42.76
-38.63
-34.59
-31.50
-29.77
-29.23
-29.20
-28.74
-26.93
-23.15
-17.11
-8.84
1.44
13.45
26.75
40.45
53.11
62.89
68.11
68.02
63.30
56.07
49.20
45.26
45.55
49.66
55.68
60.93
62.95
60.37
53.30
43.31
32.90
24.60
20.07
19.39
20.97
22.19
20.43
14.32
4.28
-7.56
-18.22
-24.96
-26.29
-22.30
-14.45
-5.00
3.87
10.52
14.10
14.44
11.92
7.35
1.86
-3.25
-6.87
-8.50
-8.33
-7.12
-5.67
-4.20
-2.35
0.44
4.15
7.78
9.62
8.32
3.88
-2.04
-7.01
-9.28
-8.84
-7.42
-7.26
-9.61
-13.85
-17.98
-19.76
-18.15
-13.83
-8.86
-5.53
-5.19
-7.63
-11.26
-13.91
-13.82
-10.46
-4.85
0.97
4.83
5.52
3.42
0.28
-1.74
-1.27
1.44
4.85
7.09
7.21
5.89
5.05
6.71
11.65
18.78
25.47
28.90
27.57
22.13
15.01
9.20
6.74
7.90
11.33
14.91
16.82
16.18
13.17
8.63
3.60
-1.06
-4.84
-7.62
-9.63
-11.34
-13.28
-15.80
-18.95
-22.43
-25.88
-29.06
-32.06
-35.12
-38.34
-41.34
-43.26
-43.05
-39.98
-34.22
-26.92
-19.99
-15.34
-14.10
-16.18
-20.37
-24.93
-28.37
-30.01
-30.02
-29.14
-28.14
-27.43
-26.92
-26.20
-24.81
-22.45
-19.10
-14.85
-9.85
-4.15
2.26
9.30
16.79
24.34
31.61
38.43
45.03
51.87
59.40
67.46
75.05
80.54
82.21
79.03
71.14
59.65
46.03
31.54
16.83
2.18
-11.92
-24.58
-34.49
-40.56
-42.48
-40.88
-37.13
-32.62
-28.23
-24.00
-19.35
-13.62
-6.69
0.64
6.82
10.23
10.08
6.98
2.85
-0.04
-0.23
2.13
5.34
7.21
6.29
2.69
-2.15
-6.34
-8.60
-8.71
-7.25
-5.05
-2.59
-0.07
2.36
4.22
4.73
3.10
-1.08
-7.54
-15.34
-23.01
-29.01
-32.05
-31.62
-28.10
-22.72
-17.22
-13.30
-12.06
-13.72
-17.68
-22.83
-28.00
-32.30
-35.30
-36.92
-37.32
-36.65
-35.06
-32.57
-29.21
-25.00
-20.00
-14.28
-7.71
-0.07
8.86
19.01
29.93
40.84
51.12
60.78
70.54
81.52
94.41
108.63
121.95
130.97
132.24
123.56
104.94
78.67
48.59
18.85
-7.09
-27.16
-40.61
-47.73
-49.49
-47.29
-42.79
-37.64
-33.25
-30.41
-29.20
-29.03
-29.03
-28.41
-26.71
-23.98
-20.61
-17.30
-14.79
-13.67
-14.27
-16.52
-20.14
-24.68
-29.72
-34.95
-40.10
-44.87
-48.84
-51.55
-52.65
-52.02
-49.71
-45.87
-40.80
-34.86
-28.66
-23.05
-19.03
-17.45
-18.81
-23.27
-30.83
-41.55
-55.40
-71.82
-89.06
-103.98
-112.87
-112.77
-103.07
-86.11
-66.41
-48.83
-36.59
-30.26
-28.05
-27.12
-25.06
-20.58
-13.32
-3.29
9.55
25.02
42.36
59.90
75.35
86.56
92.26
92.50
88.42
81.83
74.49
67.70
62.10
57.66
53.93
50.40
46.77
43.16
40.02
37.86
36.89
36.86
37.09
36.77
35.42
33.00
29.85
26.52
23.40
20.73
18.63
17.29
17.06
18.46
21.99
27.91
36.08
45.98
56.86
67.97
78.82
89.27
99.43
109.49
119.47
129.09
137.79
144.89
149.83
152.35
152.70
151.72
150.65
150.63
152.14
154.39
155.15
151.32
139.99
119.39
89.66
52.75
11.92
-28.97
-66.16
-96.55
-118.42
-132.02
-139.86
-146.12
-155.19
-169.87
-190.03
-212.57
-232.92
-247.10
-253.52
-253.31
-249.23
-243.85
-238.07
-230.83
-219.92
-203.45
-180.96
-153.67
-123.89
-93.90
-65.27
-38.62
-14.06
8.16
27.27
42.18
52.03
56.75
57.26
55.16
52.18
49.56
47.68
46.14
44.17
41.12
36.85
31.82
26.90
22.96
20.53
19.57
19.59
19.94
20.08
19.78
19.16
18.52
18.21
18.44
19.28
20.59
22.03
23.14
23.45
22.66
20.80
18.26
15.60
13.31
11.54
10.03
8.29
5.96
3.05
0.01
-2.57
-4.22
-4.94
-5.09
-5.29
-6.00
-7.45
-9.60
-12.34
-15.54
-19.03
-22.52
-25.46
-27.11
-26.88
-24.46
-20.09
-14.41
-8.26
-2.35
2.92
7.42
11.24
14.48
17.16
19.12
20.21
20.25
19.29
17.52
15.27
12.86
10.49
8.17
5.76
3.11
0.24
-2.65
-5.25
-7.26
-8.56
-9.25
-9.54
-9.69
-9.85
-10.11
-10.54
-11.26
-12.36
-13.83
-15.38
-16.54
-16.74
-15.57
-12.96
-9.21
-4.78
-0.19
4.20
8.16
11.57
14.38
16.56
18.20
19.52
20.81
22.29
24.01
25.71
26.97
27.41
26.85
25.42
23.51
21.53
19.79
18.40
17.22
16.05
14.73
13.22
11.58
9.91
8.29
6.71
5.14
3.55
1.94
0.42
-0.86
-1.72
-2.00
-1.65
-0.70
0.71
2.41
4.22
5.99
7.63
9.06
10.22
11.11
11.73
12.12
12.32
12.36
12.30
12.17
12.02
11.90
11.85
11.85
11.87
11.87
11.86
11.88
11.95
12.03
11.97
11.59
10.75
9.46
7.82
6.03
4.20
2.34
0.35
-1.88
-4.29
-6.58
-8.28
-8.84
-7.88
-5.33
-1.52
2.99
7.54
11.57
14.81
17.22
18.96
20.22
21.09
21.50
21.34
20.46
18.93
16.93
14.72
12.53
10.45
8.44
6.49
4.64
3.04
1.78
0.79
-0.12
-1.13
-2.28
-3.41
-4.29
-4.90
-5.60
-7.02
-9.79
-14.05
-19.30
-24.52
-28.56
-30.56
-30.27
-27.94
-24.12
-19.34
-13.99
-8.32
-2.62
2.70
7.18
10.44
12.37
13.23
13.55
13.96
15.00
16.93
19.69
22.95
26.23
29.04
31.02
32.03
32.26
32.05
31.78
31.74
32.04
32.65
33.44
34.26
34.90
35.13
34.79
33.88
32.80
32.24
32.98
35.47
39.53
44.35
48.80
51.92
53.29
53.15
52.09
50.80
49.61
48.55
47.39
45.91
44.10
42.21
40.65
39.80
39.84
40.59
41.58
42.09
41.38
38.90
34.48
28.37
21.23
13.88
7.12
1.49
-2.76
-5.71
-7.73
-9.29
-10.95
-13.20
-16.40
-20.72
-26.09
-32.25
-38.76
-45.12
-50.87
-55.71
-59.50
-62.34
-64.50
-66.40
-68.55
-71.39
-75.28
-80.33
-86.34
-92.82
-99.16
-104.75
-109.22
-112.52
-114.90
-116.65
-117.96
-118.81
-118.94
-118.02
-115.82
-112.27
-107.45
-101.53
-94.77
-87.43
-79.86
-72.42
-65.40
-58.85
-52.45
-45.43
-36.74
-25.33
-10.42
8.20
30.11
54.35
79.51
103.95
125.97
144.04
157.05
164.50
166.56
164.01
157.99
149.71
140.21
130.22
120.15
110.11
99.96
89.40
78.15
66.13
53.51
40.73
28.35
16.90
6.85
-1.45
-7.70
-11.77
-13.83
-14.36
-14.11
-13.86
-14.10
-14.92
-16.09
-17.24
-18.05
-18.43
-18.43
-18.17
-17.69
-17.00
-16.11
-15.13
-14.34
-14.16
-15.08
-17.57
-21.95
-28.27
-36.27
-45.39
-54.81
-63.69
-71.31
-77.30
-81.72
-85.14
-88.50
-92.90
-99.18
-107.64
-117.72
-128.05
-136.73
-141.77
-141.69
-135.95
-125.22
-111.28
-96.60
-83.66
-74.21
-68.78
-66.60
-66.01
-65.15
-62.67
-58.10
-51.71
-44.10
-35.68
-26.49
-16.48
-5.87
4.54
13.55
20.16
24.11
26.31
28.52
32.68
40.12
50.94
64.08
77.78
90.35
100.72
108.66
114.50
118.70
121.45
122.56
121.67
118.54
113.24
106.18
97.90
88.85
79.36
69.74
60.52
52.44
46.26
42.38
40.47
39.47
37.89
34.44
28.48
20.17
10.34
-0.01
-10.09
-19.54
-28.24
-36.16
-43.13
-48.84
-52.92
-55.15
-55.57
-54.49
-52.35
-49.57
-46.45
-43.09
-39.54
-35.86
-32.27
-29.08
-26.62
-25.15
-24.66
-24.97
-25.78
-26.87
-28.15
-29.69
-31.64
-33.99
-36.48
-38.49
-39.26
-38.08
-34.61
-29.07
-22.17
-14.94
-8.30
-2.80
1.52
5.05
8.32
11.73
15.41
19.22
22.86
25.99
28.34
29.71
30.10
29.67
28.78
27.94
27.56
27.90
28.86
30.13
31.24
31.81
31.62
30.58
28.63
25.66
21.53
16.22
10.04
3.72
-1.69
-5.14
-5.99
-4.28
-0.75
3.58
7.87
11.87
16.02
21.13
27.77
35.89
44.70
52.98
59.56
63.82
65.81
66.21
65.94
65.90
66.66
68.41
70.96
73.75
76.03
77.00
76.12
73.27
68.87
63.76
58.94
55.19
52.77
51.37
50.26
48.59
45.73
41.46
36.14
30.67
26.43
25.00
27.55
34.03
42.51
49.18
49.35
39.04
16.65
-16.36
-55.92
-96.88
-134.62
-166.13
-189.98
-205.77
-213.41
-212.97
-204.97
-190.68
-172.21
-151.94
-131.84
-112.98
-95.60
-79.54
-64.79
-51.75
-41.14
-33.57
-29.03
-26.78
-25.43
-23.49
-19.92
-14.52
-8.00
-1.73
2.77
4.28
2.27
-2.90
-10.07
-17.44
-23.06
-25.24
-23.04
-16.47
-6.47
5.49
17.87
29.45
39.54
47.90
54.53
59.48
62.78
64.42
64.37
62.71
59.59
55.35
50.54
45.86
41.95
39.13
37.28
35.86
34.21
31.82
28.61
24.85
21.01
17.52
14.63
12.37
10.65
9.33
8.19
6.94
5.15
2.50
-1.02
-4.78
-7.62
-8.10
-5.05
1.93
12.20
24.26
36.24
46.40
53.62
57.52
58.34
56.71
53.41
49.28
45.08
41.45
38.76
37.00
35.84
34.68
32.97
30.36
26.86
22.74
18.42
14.20
10.19
6.29
2.35
-1.76
-6.08
-10.57
-15.14
-19.80
-24.64
-29.82
-35.50
-41.60
-47.52
-52.14
-54.00
-51.85
-45.27
-35.00
-22.83
-10.85
-0.60
7.45
13.84
19.54
25.16
30.48
34.63
36.58
35.82
32.57
27.67
22.11
16.78
12.30
9.14
7.63
7.92
9.75
12.38
14.77
15.94
15.43
13.48
10.86
8.48
6.99
6.43
6.30
5.74
3.93
0.49
-4.37
-9.74
-14.25
-16.66
-16.19
-12.90
-7.56
-1.24
5.09
10.89
16.07
20.69
24.74
28.08
30.48
31.82
32.31
32.30
32.18
32.20
32.27
32.17
31.59
30.33
28.39
25.96
23.24
20.39
17.38
14.04
10.12
5.48
0.15
-5.63
-11.44
-16.83
-21.52
-25.46
-28.98
-32.63
-37.01
-42.50
-48.92
-55.52
-61.08
-64.20
-63.81
-59.53
-51.80
-41.74
-30.79
-20.23
-10.93
-3.20
3.08
8.17
12.28
15.48
17.68
18.75
18.70
17.70
16.09
14.27
12.49
10.83
9.25
7.59
5.84
4.05
2.39
0.96
-0.30
-1.58
-3.12
-5.08
-7.47
-10.14
-12.94
-15.81
-18.90
-22.45
-26.71
-31.66
-36.89
-41.58
-44.65
-45.10
-42.37
-36.58
-28.55
-19.49
-10.62
-2.76
3.82
9.35
14.21
18.70
22.78
26.18
28.54
29.67
29.63
28.71
27.35
25.92
24.64
23.62
22.79
22.04
21.17
19.93
18.09
15.48
12.08
8.06
3.71
-0.67
-4.86
-8.85
-12.75
-16.82
-21.31
-26.37
-31.89
-37.40
-42.09
-44.95
-45.10
-42.12
-36.23
-28.25
-19.24
-10.24
-1.90
5.54
12.13
17.95
23.01
27.20
30.41
32.60
33.84
34.33
34.26
33.78
32.97
31.84
30.35
28.53
26.48
24.36
22.33
20.44
18.58
16.52
13.98
10.80
7.05
2.95
-1.16
-5.02
-8.55
-11.90
-15.35
-19.31
-24.11
-29.89
-36.42
-43.04
-48.68
-52.10
-52.30
-48.84
-42.06
-32.96
-22.87
-12.99
-4.05
3.74
10.55
16.66
22.20
27.06
30.98
33.75
35.29
35.79
35.57
35.02
34.44
33.94
33.49
32.94
32.17
31.09
29.76
28.25
26.66
24.96
23.11
20.98
18.52
15.76
12.85
10.00
7.37
4.97
2.66
0.22
-2.59
-5.89
-9.72
-14.03
-18.78
-23.93
-29.29
-34.42
-38.55
-40.77
-40.28
-36.75
-30.53
-22.52
-13.95
-5.89
1.00
6.59
11.12
14.93
18.23
20.97
22.96
24.02
24.19
23.72
23.07
22.60
22.47
22.51
22.40
21.87
20.86
19.57
18.35
17.49
17.00
16.61
15.84
14.25
11.61
8.08
4.11
0.30
-2.88
-5.23
-6.92
-8.39
-10.16
-12.64
-16.05
-20.35
-25.29
-30.44
-35.09
-38.36
-39.39
-37.57
-32.92
-26.16
-18.56
-11.52
-6.11
-2.66
-0.79
0.28
1.31
2.67
4.28
5.76
6.74
7.09
6.93
6.49
5.95
5.34
4.53
3.45
2.17
0.91
-0.04
-0.61
-0.99
-1.59
-2.82
-4.89
-7.66
-10.71
-13.52
-15.72
-17.21
-18.23
-19.20
-20.62
-22.90
-26.30
-30.74
-35.78
-40.59
-44.09
-45.20
-43.23
-38.12
-30.51
-21.52
-12.43
-4.18
2.76
8.45
13.26
17.50
21.31
24.61
27.22
29.06
30.26
31.12
31.93
32.87
33.86
34.64
34.86
34.32
33.03
31.20
29.09
26.93
24.72
22.32
19.45
15.94
11.77
7.17
2.51
-1.79
-5.49
-8.54
-11.20
-13.87
-17.01
-20.93
-25.72
-31.06
-36.24
-40.31
-42.30
-41.46
-37.63
-31.21
-23.12
-14.50
-6.40
0.56
6.21
10.71
14.42
17.59
20.27
22.35
23.65
24.13
23.95
23.45
22.96
22.66
22.51
22.20
21.42
20.01
18.02
15.71
13.41
11.29
9.31
7.20
4.67
1.50
-2.35
-6.66
-11.10
-15.37
-19.31
-22.96
-26.50
-30.13
-33.94
-37.91
-41.96
-46.12
-50.45
-54.93
-59.24
-62.61
-64.01
-62.54
-57.89
-50.53
-41.68
-32.73
-24.80
-18.36
-13.28
-9.11
-5.50
-2.38
0.11
1.73
2.50
2.75
2.99
3.68
5.01
6.81
8.64
10.06
10.83
11.14
11.35
11.86
12.81
14.04
15.15
15.71
15.46
14.38
12.65
10.59
8.49
6.60
5.03
3.77
2.63
1.25
-0.78
-3.88
-8.17
-13.48
-19.18
-24.34
-27.88
-28.95
-27.11
-22.52
-15.88
-8.17
-0.42
6.63
12.53
17.15
20.49
22.60
23.60
23.62
22.95
21.91
20.89
20.14
19.76
19.66
19.67
19.60
19.32
18.81
18.04
17.01
15.60
13.68
11.12
7.92
4.20
0.25
-3.61
-7.11
-10.14
-12.77
-15.25
-17.87
-20.97
-24.74
-29.26
-34.31
-39.40
-43.78
-46.53
-46.91
-44.55
-39.60
-32.78
-25.01
-17.20
-9.94
-3.44
2.34
7.50
12.06
15.89
18.86
20.94
22.23
23.00
23.52
23.97
24.36
24.57
24.44
23.94
23.17
22.32
21.54
20.87
20.15
19.10
17.47
15.13
12.14
8.74
5.21
1.83
-1.23
-4.04
-6.77
-9.78
-13.45
-18.04
-23.54
-29.55
-35.26
-39.66
-41.76
-40.95
-37.17
-30.95
-23.25
-15.15
-7.50
-0.80
4.90
9.78
14.06
17.87
21.18
23.89
25.92
27.28
28.09
28.56
28.86
29.12
29.32
29.36
29.12
28.54
27.68
26.68
25.65
24.60
23.37
21.69
19.37
16.30
12.58
8.46
4.24
0.21
-3.47
-6.75
-9.71
-12.52
-15.38
-18.50
-22.05
-26.13
-30.73
-35.67
-40.54
-44.68
-47.31
-47.69
-45.40
-40.53
-33.71
-25.85
-17.87
-10.41
-3.74
2.12
7.23
11.56
14.97
17.37
18.82
19.58
20.07
20.66
21.48
22.45
23.27
23.68
23.51
22.85
21.94
21.05
20.34
19.75
19.03
17.83
15.84
13.00
9.47
5.62
1.85
-1.55
-4.49
-7.16
-9.87
-13.01
-16.88
-21.61
-27.07
-32.81
-38.09
-41.93
-43.39
-41.86
-37.32
-30.41
-22.15
-13.62
-5.57
1.65
8.06
13.75
18.72
22.79
25.75
27.50
28.21
28.25
28.04
27.92
28.01
28.21
28.28
27.97
27.10
25.69
23.90
22.01
20.20
18.54
16.93
15.15
12.98
10.30
7.14
3.64
0.05
-3.44
-6.71
-9.80
-12.88
-16.26
-20.23
-24.96
-30.34
-35.98
-41.12
-44.89
-46.49
-45.39
-41.57
-35.47
-27.90
-19.81
-12.00
-4.99
1.06
6.21
10.60
14.32
17.35
19.65
21.25
22.29
22.99
23.59
24.20
24.83
25.34
25.53
25.28
24.53
23.39
22.02
20.60
19.29
18.07
16.77
15.13
12.88
9.96
6.49
2.85
-0.60
-3.62
-6.27
-8.82
-11.65
-15.06
-19.20
-24.02
-29.33
-34.81
-39.94
-44.02
-46.23
-45.90
-42.72
-36.94
-29.35
-21.02
-12.92
-5.67
0.56
5.94
10.70
14.94
18.57
21.43
23.43
24.66
25.39
25.94
26.50
27.03
27.36
27.24
26.55
25.38
24.00
22.64
21.42
20.22
18.75
16.70
13.88
10.38
6.52
2.73
-0.61
-3.35
-5.60
-7.72
-10.16
-13.31
-17.32
-22.06
-27.06
-31.59
-34.81
-35.98
-34.70
-31.01
-25.44
-18.81
-11.98
-5.59
0.04
4.83
8.82
11.99
14.29
15.74
16.44
16.68
16.82
17.09
17.53
18.00
18.25
18.13
17.65
16.98
16.31
15.76
15.23
14.50
13.30
11.48
9.05
6.21
3.22
0.33
-2.31
-4.73
-7.04
-9.44
-12.22
-15.64
-19.83
-24.67
-29.58
-33.67
-35.86
-35.32
-31.86
-25.96
-18.62
-10.99
-3.92
2.20
7.36
11.72
15.36
18.19
20.04
20.77
20.51
19.60
18.50
17.63
17.21
17.18
17.34
17.40
17.16
16.60
15.79
14.90
13.99
13.06
11.98
10.61
8.81
6.54
3.87
0.94
-2.01
-4.79
-7.28
-9.61
-12.07
-15.06
-18.87
-23.49
-28.53
-33.22
-36.59
-37.80
-36.38
-32.41
-26.47
-19.48
-12.41
-6.02
-0.68
3.60
7.04
9.90
12.29
14.18
15.45
16.04
15.99
15.50
14.89
14.44
14.30
14.48
14.83
15.10
15.10
14.77
14.13
13.34
12.52
11.68
10.71
9.42
7.63
5.33
2.67
-0.08
-2.65
-4.92
-6.95
-8.98
-11.27
-14.07
-17.53
-21.65
-26.22
-30.82
-34.81
-37.45
-38.04
-36.20
-31.98
-25.92
-18.87
-11.78
-5.42
-0.24
3.66
6.39
8.18
9.28
9.87
10.14
10.24
10.32
10.47
10.63
10.71
10.58
10.15
9.50
8.79
8.21
7.83
7.50
6.91
5.72
3.72
0.96
-2.27
-5.55
-8.57
-11.20
-13.53
-15.84
-18.45
-21.62
-25.40
-29.61
-33.73
-37.00
-38.56
-37.72
-34.21
-28.38
-21.08
-13.45
-6.51
-0.93
3.14
5.95
7.91
9.40
10.62
11.56
12.16
12.34
12.17
11.80
11.48
11.41
11.65
12.09
12.51
12.59
12.15
11.08
9.47
7.46
5.27
3.01
0.76
-1.47
-3.74
-6.12
-8.72
-11.69
-15.19
-19.32
-23.99
-28.82
-33.08
-35.88
-36.40
-34.21
-29.48
-22.90
-15.51
-8.30
-1.96
3.29
7.57
11.11
14.08
16.55
18.49
19.92
20.88
21.47
21.75
21.71
21.35
20.67
19.80
18.90
18.14
17.59
17.16
16.59
15.56
13.75
11.06
7.60
3.69
-0.23
-3.78
-6.75
-9.23
-11.60
-14.34
-17.94
-22.61
-28.14
-33.87
-38.77
-41.76
-41.99
-39.21
-33.85
-26.86
-19.36
-12.29
-6.11
-0.87
3.64
7.67
11.25
14.27
16.55
18.00
18.69
18.91
18.99
19.17
19.52
19.87
19.97
19.63
18.81
17.64
16.35
15.09
13.93
12.80
11.54
10.05
8.27
6.15
3.73
1.01
-1.93
-4.97
-7.99
-10.93
-13.82
-16.77
-19.94
-23.49
-27.51
-32.05
-36.99
-41.98
-46.39
-49.33
-49.96
-47.73
-42.67
-35.44
-27.07
-18.60
-10.77
-3.81
2.36
7.95
13.04
17.56
21.34
24.34
26.68
28.61
30.34
31.94
33.26
34.09
34.25
33.77
32.89
31.93
31.12
30.49
29.86
28.95
27.50
25.44
22.83
19.90
16.92
14.07
11.49
9.12
6.83
4.42
1.78
-1.10
-4.06
-6.90
-9.44
-11.67
-13.75
-15.95
-18.59
-21.93
-26.09
-31.01
-36.33
-41.43
-45.46
-47.57
-47.09
-43.80
-38.01
-30.50
-22.23
-14.20
-7.07
-1.18
3.57
7.48
10.89
14.00
16.78
19.03
20.53
21.21
21.22
20.88
20.49
20.19
19.90
19.42
18.61
17.53
16.41
15.49
14.87
14.38
13.66
12.41
10.52
8.19
5.92
4.18
3.20
2.82
2.55
1.81
0.21
-2.29
-5.39
-8.61
-11.51
-13.89
-15.79
-17.45
-19.17
-21.24
-23.87
-27.24
-31.37
-36.04
-40.74
-44.65
-46.78
-46.30
-42.87
-36.77
-28.86
-20.34
-12.32
-5.47
-0.02
4.28
7.77
10.75
13.32
15.46
17.14
18.42
19.50
20.61
21.93
23.52
25.25
26.88
28.11
28.76
28.77
28.29
27.54
26.73
25.97
25.20
24.23
22.83
20.81
18.12
14.86
11.24
7.51
3.93
0.60
-2.47
-5.39
-8.31
-11.38
-14.73
-18.50
-22.80
-27.62
-32.70
-37.39
-40.71
-41.61
-39.41
-34.08
-26.39
-17.65
-9.22
-2.09
3.41
7.50
10.70
13.45
15.95
18.08
19.67
20.67
21.19
21.54
22.01
22.72
23.56
24.26
24.53
24.23
23.45
22.41
21.37
20.47
19.65
18.73
17.41
15.48
12.83
9.60
6.06
2.55
-0.63
-3.38
-5.80
-8.16
-10.76
-13.88
-17.64
-22.04
-26.91
-31.94
-36.63
-40.28
-42.11
-41.47
-38.15
-32.50
-25.40
-17.95
-11.06
-5.18
-0.23
4.13
8.25
12.25
15.96
19.09
21.37
22.71
23.23
23.21
22.94
22.69
22.60
22.66
22.71
22.58
22.08
21.21
20.02
18.67
17.28
15.81
14.13
12.07
9.54
6.57
3.33
0.03
-3.18
-6.19
-9.02
-11.77
-14.51
-17.38
-20.51
-24.09
-28.33
-33.28
-38.70
-43.93
-47.99
-49.82
-48.69
-44.51
-37.84
-29.79
-21.55
-14.02
-7.58
-2.15
2.65
7.15
11.47
15.48
18.91
21.55
23.38
24.55
25.35
26.02
26.64
27.18
27.49
27.50
27.23
26.79
26.27
25.61
24.70
23.32
21.41
19.02
16.39
13.80
11.46
9.36
7.37
5.25
2.77
-0.19
-3.56
-7.14
-10.70
-14.02
-17.05
-19.93
-23.00
-26.61
-31.02
-36.13
-41.35
-45.74
-48.22
-48.00
-44.87
-39.26
-32.06
-24.31
-16.82
-10.05
-4.12
1.03
5.52
9.44
12.85
15.80
18.38
20.62
22.57
24.20
25.50
26.48
27.18
27.67
28.04
28.33
28.53
28.54
28.22
27.37
25.91
23.85
21.36
18.67
15.98
13.44
11.02
8.63
6.15
3.57
0.93
-1.68
-4.19
-6.63
-9.15
-11.99
-15.38
-19.49
-24.31
-29.70
-35.31
-40.62
-44.91
-47.38
-47.36
-44.49
-38.96
-31.53
-23.30
-15.39
-8.57
-3.06
1.36
5.12
8.58
11.85
14.80
17.20
18.88
19.80
20.13
20.19
20.35
20.83
21.63
22.55
23.20
23.27
22.62
21.39
19.85
18.29
16.81
15.26
13.38
10.95
7.95
4.58
1.16
-2.04
-4.95
-7.71
-10.57
-13.75
-17.35
-21.36
-25.74
-30.42
-35.29
-40.03
-43.95
-46.17
-45.80
-42.44
-36.36
-28.49
-20.11
-12.33
-5.75
-0.33
4.34
8.69
12.94
16.94
20.40
23.11
25.01
26.26
27.04
27.56
27.96
28.38
28.91
29.59
30.26
30.62
30.35
29.20
27.20
24.60
21.80
19.13
16.73
14.53
12.33
9.93
7.21
4.16
0.84
-2.62
-6.12
-9.58
-12.97
-16.33
-19.72
-23.27
-27.08
-31.25
-35.72
-40.21
-44.09
-46.54
-46.70
-44.06
-38.71
-31.36
-23.11
-15.01
-7.70
-1.25
4.57
10.04
15.20
19.77
23.38
25.83
27.23
28.01
28.69
29.64
30.90
32.25
33.34
33.92
33.87
33.26
32.18
30.75
28.99
26.90
24.54
22.03
19.56
17.32
15.42
13.79
12.23
10.43
8.04
4.89
1.03
-3.25
-7.46
-11.16
-14.15
-16.57
-18.87
-21.64
-25.37
-30.27
-36.02
-41.83
-46.60
-49.18
-48.74
-45.09
-38.75
-30.75
-22.30
-14.38
-7.43
-1.46
3.79
8.55
12.91
16.79
20.08
22.75
24.86
26.47
27.66
28.42
28.72
28.61
28.16
27.54
26.94
26.49
26.24
26.10
25.88
25.37
24.36
22.80
20.76
18.44
16.08
13.80
11.58
9.29
6.75
3.86
0.70
-2.55
-5.64
-8.43
-10.94
-13.39
-16.13
-19.53
-23.84
-29.07
-34.81
-40.32
-44.61
-46.66
-45.83
-42.04
-35.86
-28.26
-20.32
-12.89
-6.35
-0.68
4.35
8.89
12.94
16.32
18.81
20.38
21.22
21.71
22.24
23.02
24.02
25.00
25.67
25.91
25.78
25.46
25.10
24.70
24.06
22.91
21.09
18.64
15.84
13.03
10.48
8.23
6.10
3.82
1.20
-1.75
-4.87
-7.91
-10.75
-13.41
-16.08
-18.97
-22.24
-25.97
-30.14
-34.65
-39.21
-43.29
-46.09
-46.77
-44.74
-39.95
-32.99
-24.90
-16.72
-9.18
-2.54
3.27
8.41
12.93
16.73
19.69
21.81
23.27
24.37
25.40
26.51
27.65
28.69
29.44
29.81
29.80
29.51
29.08
28.59
28.03
27.30
26.26
24.80
22.85
20.52
17.94
15.32
12.81
10.46
8.21
5.90
3.37
0.52
-2.56
-5.70
-8.64
-11.27
-13.60
-15.86
-18.38
-21.49
-25.40
-30.06
-35.08
-39.74
-43.08
-44.23
-42.66
-38.41
-32.12
-24.76
-17.33
-10.55
-4.70
0.26
4.54
8.30
11.61
14.38
16.57
18.21
19.38
20.28
21.07
21.84
22.56
23.13
23.44
23.42
23.11
22.69
22.30
22.07
21.95
21.79
21.39
20.54
19.16
17.31
15.12
12.79
10.51
8.37
6.39
4.46
2.46
0.28
-2.06
-4.45
-6.72
-8.75
-10.55
-12.29
-14.27
-16.70
-19.70
-23.19
-26.92
-30.52
-33.52
-35.40
-35.67
-34.05
-30.56
-25.61
-19.91
-14.23
-9.21
-5.12
-1.96
0.53
2.56
4.34
5.92
7.33
8.55
9.56
10.37
11.02
11.55
12.04
12.56
13.13
13.68
14.07
14.18
13.92
13.28
12.33
11.13
9.75
8.21
6.62
5.07
3.69
2.55
1.60
0.68
-0.36
-1.64
-3.12
-4.71
-6.25
-7.67
-9.05
-10.50
-12.26
-14.52
-17.38
-20.81
-24.50
-27.95
-30.45
-31.35
-30.30
-27.34
-22.93
-17.82
-12.71
-8.09
-4.17
-0.93
1.77
4.03
5.90
7.35
8.39
9.03
9.39
9.59
9.79
10.07
10.48
10.96
11.47
11.92
12.24
12.36
12.20
11.67
10.75
9.52
8.15
6.85
5.76
4.85
3.96
2.88
1.46
-0.32
-2.34
-4.41
-6.37
-8.17
-9.87
-11.60
-13.52
-15.78
-18.48
-21.62
-25.05
-28.42
-31.15
-32.59
-32.20
-29.80
-25.66
-20.51
-15.20
-10.47
-6.65
-3.69
-1.25
1.00
3.26
5.53
7.67
9.57
11.16
12.43
13.45
14.24
14.82
15.17
15.29
15.20
14.97
14.65
14.31
13.98
13.64
13.22
12.62
11.81
10.78
9.59
8.30
6.91
5.34
3.48
1.30
-1.15
-3.67
-6.05
-8.12
-9.91
-11.57
-13.36
-15.55
-18.37
-21.90
-26.00
-30.28
-34.08
-36.56
-36.95
-34.85
-30.42
-24.40
-17.89
-11.96
-7.30
-4.00
-1.67
0.32
2.42
4.79
7.24
9.40
10.99
11.96
12.47
12.76
12.99
13.20
13.30
13.21
12.91
12.53
12.25
12.16
12.22
12.19
11.82
10.92
9.54
7.85
6.14
4.55
3.07
1.54
-0.23
-2.32
-4.64
-6.95
-9.05
-10.90
-12.65
-14.61
-17.06
-20.15
-23.80
-27.67
-31.20
-33.75
-34.71
-33.74
-30.83
-26.44
-21.24
-15.97
-11.17
-7.07
-3.63
-0.70
1.85
4.04
5.80
7.07
7.87
8.32
8.58
8.85
9.26
9.88
10.68
11.52
12.21
12.56
12.46
11.91
11.04
9.99
8.85
7.65
6.37
5.00
3.59
2.23
0.99
-0.19
-1.41
-2.82
-4.47
-6.34
-8.38
-10.57
-13.00
-15.81
-19.12
-22.87
-26.74
-30.17
-32.49
-33.08
-31.61
-28.16
-23.20
-17.45
-11.65
-6.26
-1.46
2.80
6.67
10.18
13.16
15.43
16.90
17.69
18.07
18.36
18.73
19.18
19.59
19.86
19.96
20.01
20.09
20.22
20.31
20.18
19.70
18.86
17.75
16.52
15.27
13.90
12.22
9.99
7.08
3.63
-0.07
-3.63
-6.75
-9.32
-11.53
-13.69
-16.17
-19.24
-23.03
-27.47
-32.27
-36.90
-40.65
-42.73
-42.57
-39.96
-35.18
-28.95
-22.16
-15.57
-9.62
-4.37
0.35
4.73
8.80
12.46
15.54
17.96
19.80
21.25
22.50
23.71
24.83
25.75
26.34
26.57
26.52
26.32
26.11
25.92
25.66
25.16
24.24
22.81
20.91
18.71
16.46
14.43
12.71
11.23
9.71
7.86
5.44
2.48
-0.80
-4.06
-7.01
-9.56
-11.82
-14.10
-16.75
-20.06
-24.13
-28.83
-33.74
-38.12
-41.19
-42.20
-40.80
-37.13
-31.85
-25.78
-19.71
-14.12
-9.08
-4.45
-0.02
4.28
8.35
12.01
15.08
17.46
19.18
20.34
21.05
21.46
21.67
21.78
21.86
21.97
22.14
22.36
22.57
22.69
22.56
22.02
20.94
19.31
17.23
14.96
12.74
10.72
8.88
7.06
5.03
2.63
-0.12
-3.02
-5.81
-8.28
-10.38
-12.25
-14.17
-16.47
-19.36
-22.96
-27.10
-31.39
-35.14
-37.57
-37.99
-36.01
-31.76
-25.88
-19.29
-12.91
-7.38
-2.92
0.60
3.46
5.87
7.93
9.62
10.88
11.71
12.25
12.70
13.28
14.10
15.15
16.24
17.11
17.54
17.44
16.91
16.16
15.41
14.74
14.05
13.13
11.76
9.82
7.37
4.62
1.86
-0.69
-2.96
-5.04
-7.13
-9.44
-12.16
-15.35
-19.02
-23.10
-27.45
-31.80
-35.65
-38.32
-39.15
-37.67
-33.88
-28.31
-21.88
-15.59
-10.15
-5.83
-2.41
0.52
3.36
6.27
9.16
11.82
14.04
15.78
17.14
18.32
19.46
20.51
21.30
21.56
21.09
19.94
18.32
16.59
15.04
13.67
12.21
10.17
7.12
2.89
-2.31
-7.89
-13.15
-17.54
-20.87
-23.25
-25.04
-26.65
-28.39
-30.45
-32.90
-35.68
-38.67
-41.55
-43.89
-45.12
-44.63
-41.98
-37.01
-30.00
-21.62
-12.72
-4.06
3.94
11.33
18.45
25.64
32.86
39.59
44.97
48.08
48.31
45.58
40.25
32.90
24.16
14.55
4.53
-5.37
-14.57
-22.46
-28.58
-32.66
-34.68
-34.70
-32.79
-28.88
-22.83
-14.53
-4.11
7.92
20.61
32.66
42.66
49.45
52.37
51.48
47.49
41.54
34.83
28.29
22.41
17.20
12.37
7.54
2.39
-3.21
-9.27
-15.68
-22.21
-28.48
-33.95
-38.04
-40.41
-41.07
-40.54
-39.60
-39.05
-39.30
-40.27
-41.48
-42.37
-42.70
-42.61
-42.60
-43.21
-44.73
-47.06
-49.76
-52.19
-53.62
-53.42
-51.02
-45.97
-37.96
-26.76
-12.34
5.04
24.75
45.63
66.03
83.96
97.47
105.13
106.55
102.43
94.55
85.17
76.49
70.10
66.76
66.39
68.29
71.34
74.31
76.11
76.12
74.37
71.54
68.62
66.48
65.31
64.57
63.23
60.27
55.30
48.57
40.94
33.38
26.69
21.23
16.94
13.30
9.60
5.04
-0.96
-8.45
-16.92
-25.39
-32.78
-38.31
-41.79
-43.56
-44.33
-44.81
-45.38
-45.78
-45.11
-42.07
-35.63
-25.73
-13.73
-2.13
6.30
9.86
8.54
3.94
-1.74
-6.93
-11.42
-16.03
-21.65
-28.25
-34.58
-38.67
-38.97
-35.16
-28.39
-20.66
-13.96
-9.43
-7.09
-6.11
-5.39
-4.07
-1.79
1.26
4.54
7.41
9.36
10.28
10.42
10.41
11.03
13.09
17.24
23.78
32.50
42.62
52.79
61.44
67.30
69.77
69.26
66.98
64.38
62.64
62.20
62.80
63.78
64.58
65.05
65.64
67.30
71.25
78.58
89.78
104.21
119.92
133.88
142.74
143.92
136.61
122.16
103.81
85.77
71.91
64.58
63.90
67.81
72.72
74.48
69.52
55.66
32.44
1.04
-36.08
-75.84
-115.04
-150.81
-180.97
-204.20
-220.14
-229.30
-232.68
-231.39
-226.22
-217.63
-205.96
-191.76
-176.00
-159.88
-144.61
-130.90
-118.82
-107.91
-97.54
-87.21
-76.52
-65.15
-52.91
-39.89
-26.76
-14.82
-5.53
0.19
2.47
2.58
2.29
3.10
5.48
8.81
11.76
13.09
12.30
9.78
6.68
4.33
3.74
5.22
8.36
12.23
15.76
18.21
19.30
19.13
17.83
15.44
11.91
7.39
2.49
-1.84
-4.64
-5.40
-4.28
-2.03
0.50
2.70
4.51
6.29
8.51
11.51
15.21
19.13
22.48
24.49
24.66
22.99
20.03
16.61
13.56
11.36
10.00
9.09
8.06
6.40
3.82
0.35
-3.64
-7.44
-10.17
-10.98
-9.47
-5.90
-1.28
2.83
4.92
4.12
0.63
-4.28
-8.64
-10.44
-8.35
-2.18
7.08
17.69
27.73
35.91
41.88
46.23
50.04
54.20
59.01
64.07
68.68
72.36
75.25
78.18
82.36
88.73
97.58
108.45
120.42
132.56
144.26
155.31
165.74
175.86
186.28
197.91
211.60
227.35
243.66
257.21
263.68
259.21
242.16
213.96
178.73
141.66
106.98
76.62
50.24
26.27
3.24
-19.33
-40.89
-60.54
-77.68
-92.38
-105.27
-117.23
-128.93
-140.72
-152.58
-164.28
-175.52
-186.15
-196.04
-205.05
-212.83
-218.75
-222.02
-221.91
-218.23
-211.51
-202.85
-193.50
-184.28
-175.22
-165.78
-155.32
-143.76
-131.90
-121.24
-113.38
-109.16
-108.33
-109.50
-110.80
-110.61
-108.17
-103.73
-98.23
-92.84
-88.52
-85.95
-85.45
-87.05
-90.33
-94.26
-97.20
-97.29
-93.12
-84.27
-71.68
-57.26
-43.16
-30.82
-20.54
-11.49
-2.38
7.81
19.24
31.23
42.67
52.51
60.23
65.92
70.02
73.04
75.38
77.26
78.89
80.55
82.59
85.19
88.05
90.24
90.46
87.70
81.81
73.91
66.10
60.67
59.17
61.81
67.51
74.56
81.44
87.30
92.01
95.86
99.27
102.66
106.33
110.50
115.16
119.98
124.53
128.49
132.00
135.63
140.25
146.76
155.72
167.21
180.69
194.80
207.31
215.31
215.67
205.91
184.86
152.93
111.87
64.27
13.26
-37.64
-84.61
-123.81
-152.25
-168.79
-174.87
-174.37
-172.56
-174.39
-182.90
-198.56
-219.48
-242.53
-264.57
-283.35
-297.50
-306.20
-308.72
-304.39
-292.99
-274.99
-251.53
-223.99
-193.40
-160.25
-125.03
-88.77
-53.66
-22.76
0.96
15.80
22.13
22.49
20.73
20.63
24.50
32.22
41.36
48.26
49.76
44.92
35.86
26.79
22.06
23.86
31.07
39.68
44.75
42.64
32.47
16.33
-1.86
-17.95
-28.88
-33.52
-32.62
-28.30
-23.10
-18.84
-16.02
-13.83
-10.82
-5.80
1.26
9.34
16.85
22.53
25.90
27.14
26.50
24.05
19.73
13.81
7.02
0.24
-5.96
-11.50
-16.31
-19.82
-20.68
-17.39
-9.52
1.45
12.36
19.56
20.72
15.81
6.87
-2.99
-10.90
-14.96
-14.46
-9.95
-3.16
3.38
7.00
6.13
1.34
-4.68
-8.18
-6.10
2.36
15.44
29.68
41.46
48.25
49.22
44.92
36.77
26.60
16.36
7.79
2.08
-0.53
-0.90
-0.56
-1.16
-3.60
-7.55
-11.64
-14.27
-14.41
-12.26
-9.09
-6.65
-6.39
-8.86
-13.62
-19.41
-24.56
-27.18
-25.57
-18.65
-6.66
8.51
23.58
35.02
40.42
39.62
34.85
29.55
26.69
27.41
30.67
34.06
35.37
33.73
30.05
26.34
24.49
25.26
27.90
30.63
31.50
29.04
22.65
12.52
-0.62
-15.70
-31.36
-46.05
-58.17
-66.39
-69.96
-68.86
-63.77
-56.01
-47.25
-39.30
-33.74
-31.57
-32.95
-37.07
-42.42
-47.24
-50.05
-49.98
-46.86
-41.09
-33.37
-24.35
-14.33
-3.02
10.21
25.91
43.81
62.43
79.24
91.52
97.55
97.47
93.24
87.79
83.57
81.42
80.28
77.81
71.76
61.18
46.86
31.00
16.11
4.10
-4.32
-9.35
-11.48
-10.93
-7.50
-1.02
8.09
18.53
28.48
36.23
41.07
43.48
44.80
46.50
49.45
53.52
57.69
60.57
61.00
58.50
53.30
46.12
37.83
29.14
20.63
12.72
5.73
-0.17
-5.14
-9.71
-14.70
-20.84
-28.47
-37.31
-46.35
-54.19
-59.36
-60.72
-57.76
-50.65
-40.24
-27.88
-15.16
-3.57
5.78
12.39
16.42
18.51
19.53
20.35
21.53
23.15
24.87
26.11
26.27
25.14
22.96
20.34
17.89
15.77
13.65
10.68
6.06
-0.58
-8.95
-18.24
-27.43
-35.57
-41.86
-45.64
-46.22
-43.03
-35.89
-25.31
-12.71
-0.12
10.34
17.10
19.72
18.85
15.98
12.92
11.11
11.25
13.16
16.01
18.51
19.48
18.15
14.33
8.48
1.56
-5.15
-10.40
-13.29
-13.57
-11.85
-9.50
-8.25
-9.56
-14.05
-21.02
-28.56
-34.17
-35.66
-32.00
-23.70
-12.47
-0.41
10.78
20.45
28.72
35.90
41.89
45.93
47.02
44.90
40.61
36.20
33.80
34.28
36.71
38.86
38.63
35.43
30.67
26.86
26.18
29.00
33.62
37.23
37.38
33.00
24.61
13.86
2.74
-6.93
-13.94
-17.55
-17.68
-14.90
-10.21
-4.73
0.59
5.14
8.63
10.86
11.44
10.04
6.67
1.97
-2.78
-6.07
-6.80
-4.75
-0.67
3.94
7.38
8.31
6.19
1.52
-4.47
-10.28
-14.66
-16.84
-16.64
-14.40
-10.87
-7.14
-4.27
-3.02
-3.23
-3.93
-3.79
-1.87
1.71
5.87
9.22
11.15
12.24
13.81
16.78
20.74
24.06
25.03
23.29
20.33
18.76
20.58
25.65
31.56
34.81
32.95
26.10
16.97
9.36
6.04
7.24
10.68
13.04
11.94
7.24
0.66
-5.36
-9.17
-10.51
-10.16
-9.06
-7.64
-5.88
-3.86
-2.06
-1.18
-1.48
-2.47
-3.12
-2.67
-1.34
-0.24
-0.53
-2.47
-5.11
-6.80
-6.35
-3.96
-1.07
0.67
0.59
-0.50
-0.91
0.74
4.36
8.20
9.80
7.36
0.76
-8.37
-17.51
-24.51
-28.40
-29.54
-28.97
-27.58
-25.60
-22.70
-18.38
-12.74
-6.72
-1.93
-0.01
-1.62
-6.07
-11.23
-14.61
-14.50
-10.81
-5.01
0.96
5.74
9.20
12.11
15.12
17.95
19.36
17.98
13.48
7.17
1.41
-1.63
-1.45
0.45
1.47
-0.47
-5.69
-12.57
-18.54
-21.62
-21.45
-19.28
-16.93
-15.57
-14.92
-13.50
-9.90
-3.84
3.25
8.94
11.20
9.59
5.71
2.28
1.51
3.97
8.12
11.34
11.56
8.35
3.03
-2.39
-6.68
-9.97
-13.46
-18.16
-23.90
-29.04
-31.48
-29.81
-24.21
-16.24
-7.93
-0.82
4.40
7.76
9.42
9.48
8.08
5.73
3.45
2.51
3.88
7.78
13.56
19.76
24.44
25.80
22.64
14.72
3.12
-9.95
-21.64
-29.29
-31.42
-28.27
-21.69
-14.44
-9.06
-7.13
-9.11
-14.40
-21.86
-29.99
-36.93
-40.72
-39.56
-32.49
-20.10
-5.05
8.71
17.34
18.98
14.82
8.33
3.56
2.93
6.01
10.15
12.28
11.05
7.49
4.29
3.89
6.76
11.12
14.21
14.06
10.72
6.01
2.03
-0.26
-1.74
-4.40
-9.74
-17.33
-24.48
-27.58
-24.20
-14.77
-2.78
6.75
9.73
4.97
-5.12
-15.80
-22.45
-22.68
-17.35
-9.89
-4.46
-3.73
-7.89
-14.63
-20.61
-23.21
-21.74
-17.60
-13.34
-11.06
-11.34
-13.06
-14.38
-14.09
-12.46
-10.93
-11.05
-13.22
-16.14
-17.33
-14.44
-6.52
5.49
19.40
32.93
44.66
54.29
62.13
68.43
72.97
75.49
76.29
76.70
78.94
85.01
95.60
109.48
123.94
136.17
144.70
150.07
154.60
161.30
172.66
189.78
212.04
237.20
261.83
281.86
293.37
293.50
281.28
257.93
226.40
190.36
153.04
116.52
81.61
48.19
15.66
-16.88
-50.70
-87.16
-127.16
-170.32
-214.33
-255.29
-288.71
-310.97
-320.33
-317.24
-303.75
-282.73
-257.23
-230.06
-203.68
-180.22
-161.20
-147.13
-137.41
-130.61
-124.99
-119.20
-112.41
-104.18
-94.18
-82.20
-68.54
-54.41
-41.87
-33.20
-29.75
-30.91
-33.90
-34.55
-29.25
-16.64
1.53
21.16
37.61
47.58
50.05
46.07
37.90
27.99
18.34
10.45
5.35
3.46
4.40
7.06
9.80
10.93
9.21
3.96
-4.90
-16.96
-31.15
-45.41
-56.83
-62.43
-60.33
-50.82
-36.44
-21.08
-8.56
-1.20
0.65
-1.73
-6.31
-11.18
-14.96
-16.92
-16.98
-15.56
-13.61
-12.29
-12.53
-14.63
-18.01
-21.49
-23.86
-24.42
-23.24
-21.12
-19.18
-18.33
-18.89
-20.47
-22.14
-22.82
-21.80
-18.98
-14.85
-10.23
-5.84
-1.93
1.82
6.17
12.03
20.08
30.56
43.13
56.90
70.56
82.89
93.34
102.46
111.89
123.68
139.29
158.69
180.03
200.14
215.66
224.23
225.21
219.53
208.92
194.87
178.04
158.24
135.09
108.65
79.93
50.60
22.49
-3.10
-25.74
-45.79
-63.90
-80.51
-95.69
-109.20
-120.87
-130.82
-139.56
-147.86
-156.47
-165.74
-175.48
-184.80
-192.35
-196.70
-196.89
-192.82
-185.20
-175.04
-163.17
-149.86
-135.02
-118.69
-101.41
-84.25
-68.52
-55.29
-45.13
-38.13
-34.22
-33.24
-34.87
-38.29
-42.08
-44.48
-43.96
-39.92
-32.89
-24.28
-15.64
-8.14
-2.16
2.53
6.42
9.86
12.80
14.86
15.51
14.38
11.49
7.39
3.06
-0.23
-1.29
0.64
5.64
13.14
22.13
31.53
40.52
48.72
56.00
62.27
67.20
70.22
70.72
68.40
63.63
57.46
51.46
47.18
45.73
47.53
52.29
59.42
68.38
78.84
90.46
102.47
113.24
120.46
121.73
115.47
101.56
81.58
58.22
34.41
12.46
-6.38
-21.93
-34.72
-45.46
-54.65
-62.48
-68.83
-73.45
-76.16
-76.94
-75.80
-72.68
-67.36
-59.60
-49.62
-38.47
-27.96
-20.14
-16.31
-16.25
-18.12
-19.19
-17.09
-10.99
-1.94
7.63
15.21
19.38
20.32
19.41
18.26
17.81
18.03
18.19
17.56
15.89
13.56
11.22
9.39
8.12
7.02
5.53
3.30
0.30
-3.16
-6.65
-9.75
-12.13
-13.63
-14.29
-14.28
-13.99
-13.83
-14.22
-15.31
-16.91
-18.47
-19.33
-18.93
-17.24
-14.80
-12.55
-11.40
-11.83
-13.81
-16.87
-20.46
-24.15
-27.65
-30.71
-33.03
-34.21
-33.80
-31.55
-27.44
-21.75
-15.01
-7.94
-1.33
4.11
7.91
10.02
10.77
10.69
10.22
9.47
8.13
5.62
1.41
-4.73
-12.50
-21.09
-29.27
-35.81
-39.78
-40.82
-39.31
-36.14
-32.47
-29.34
-27.39
-26.69
-26.80
-26.91
-26.07
-23.47
-18.61
-11.48
-2.57
7.30
17.18
26.28
34.16
40.68
45.87
49.70
51.97
52.42
50.99
48.10
44.63
41.77
40.47
40.98
42.75
44.61
45.35
44.28
41.49
37.77
34.24
31.86
31.15
32.10
34.29
37.12
40.02
42.61
44.75
46.52
48.15
49.86
51.73
53.61
55.07
55.53
54.48
51.53
46.55
39.43
29.95
17.59
1.89
-16.94
-37.49
-56.96
-71.80
-78.74
-76.17
-64.82
-47.55
-28.40
-11.31
0.83
6.61
6.00
-0.04
-9.93
-21.85
-34.07
-45.19
-54.28
-60.80
-64.42
-65.02
-62.73
-58.16
-52.54
-47.37
-43.91
-42.53
-42.55
-42.54
-41.14
-37.89
-33.45
-29.24
-26.72
-26.53
-28.27
-30.73
-32.58
-33.00
-31.98
-30.17
-28.47
-27.53
-27.46
-27.83
-28.05
-27.60
-26.41
-24.81
-23.37
-22.68
-23.11
-24.77
-27.41
-30.48
-33.07
-34.12
-32.63
-27.96
-20.16
-9.96
1.37
12.43
22.02
29.39
34.23
36.66
37.04
35.90
33.84
31.51
29.47
28.11
27.59
27.77
28.24
28.38
27.53
25.20
21.34
16.36
11.06
6.33
2.79
0.65
-0.41
-1.06
-2.19
-4.65
-8.94
-15.00
-21.95
-28.30
-32.31
-32.58
-28.43
-20.08
-8.40
5.50
20.60
36.02
50.82
63.85
73.83
79.73
81.36
79.57
76.15
73.06
71.72
72.35
74.07
75.35
74.84
71.82
66.42
59.31
51.34
43.21
35.44
28.48
22.63
17.97
14.09
10.07
4.71
-2.94
-13.04
-24.70
-36.19
-45.49
-50.95
-51.81
-48.33
-41.56
-32.90
-23.67
-15.04
-7.87
-2.85
-0.32
-0.03
-1.12
-2.29
-2.35
-0.78
1.95
4.59
5.75
4.68
1.70
-1.84
-4.13
-3.72
-0.13
5.86
12.61
18.25
21.30
21.12
17.90
12.43
5.74
-1.05
-6.90
-10.89
-12.38
-11.21
-7.80
-3.04
2.02
6.64
10.55
13.95
17.13
20.16
22.78
24.54
25.17
24.78
23.74
22.50
21.23
19.76
17.68
14.60
10.54
6.09
2.21
-0.16
-0.74
-0.03
0.81
0.66
-1.18
-4.65
-9.27
-14.43
-19.71
-24.82
-29.36
-32.60
-33.46
-30.97
-24.94
-16.32
-6.99
0.96
6.10
8.24
8.33
7.87
8.06
9.23
10.66
11.09
9.49
5.80
1.12
-2.81
-4.47
-3.32
0.06
4.29
7.93
9.82
9.30
6.19
0.66
-6.72
-14.97
-22.66
-28.31
-30.73
-29.50
-24.99
-18.20
-10.31
-2.40
4.89
11.42
17.46
23.53
30.06
37.08
44.10
50.30
54.94
57.64
58.64
58.63
58.47
58.86
59.87
61.01
61.38
60.19
57.32
53.40
49.69
47.44
47.26
48.76
50.69
51.52
50.20
46.56
41.19
35.01
29.03
24.18
21.18
20.44
21.78
24.28
26.64
27.77
27.39
26.18
25.30
25.61
27.07
28.71
29.25
27.89
24.71
20.40
15.57
10.27
4.07
-3.36
-11.61
-19.63
-26.19
-30.64
-33.35
-35.23
-37.16
-39.25
-40.94
-41.40
-40.28
-38.08
-36.03
-35.50
-37.30
-41.32
-46.47
-51.07
-53.57
-53.16
-50.12
-45.45
-40.12
-34.47
-28.13
-20.55
-11.91
-3.51
2.47
4.14
1.01
-5.49
-12.62
-17.63
-18.82
-16.22
-11.23
-5.96
-2.26
-1.25
-3.02
-6.71
-10.92
-14.38
-16.51
-17.62
-18.44
-19.50
-20.61
-20.92
-19.71
-17.09
-14.22
-12.65
-13.31
-15.84
-18.73
-20.24
-19.28
-15.95
-11.37
-6.86
-3.31
-0.92
0.59
1.68
2.85
4.56
7.10
10.42
14.09
17.35
19.45
19.99
18.99
16.64
13.10
8.57
3.42
-1.88
-6.83
-11.24
-15.27
-19.32
-23.60
-27.82
-31.18
-32.71
-31.84
-28.92
-25.11
-21.93
-20.75
-22.17
-25.86
-30.73
-35.23
-37.68
-36.69
-31.66
-23.15
-12.91
-3.14
4.34
8.77
10.56
10.77
10.37
9.52
7.60
3.55
-3.43
-13.05
-23.85
-33.58
-39.96
-41.52
-38.12
-31.00
-22.43
-14.99
-10.71
-10.44
-13.63
-18.73
-24.07
-28.54
-31.90
-34.38
-35.88
-35.35
-31.03
-21.53
-7.18
9.29
23.50
31.46
31.73
26.23
19.44
15.94
18.01
24.43
31.49
35.34
34.16
28.99
22.60
17.49
14.38
12.05
8.58
2.91
-4.47
-11.83
-17.24
-19.68
-19.24
-16.80
-13.46
-10.11
-7.47
-6.13
-6.49
-8.55
-11.82
-15.27
-17.67
-17.92
-15.21
-9.28
-0.59
9.79
20.19
28.74
33.92
35.15
32.92
28.33
22.49
16.00
8.95
1.38
-6.22
-12.72
-16.71
-17.12
-13.67
-7.24
0.42
7.16
10.98
10.54
5.64
-2.67
-12.09
-19.66
-22.77
-20.11
-12.26
-1.42
9.61
18.78
25.26
29.35
31.65
32.29
30.79
26.55
19.61
10.99
2.42
-4.50
-9.19
-12.26
-15.09
-19.07
-24.87
-32.24
-40.27
-47.84
-54.04
-58.41
-60.82
-61.28
-59.53
-55.32
-48.80
-41.08
-34.03
-29.56
-28.32
-29.06
-29.24
-26.30
-19.29
-9.60
-0.16
6.24
8.49
7.80
6.81
7.84
11.62
16.96
21.78
24.50
25.04
24.75
25.33
27.78
31.39
34.03
33.18
27.24
16.40
2.72
-10.62
-20.57
-25.07
-23.69
-17.40
-8.31
0.88
7.59
10.26
9.08
6.13
4.47
6.63
13.22
22.42
30.83
35.18
34.00
28.23
20.59
14.13
10.67
10.27
11.52
12.55
12.02
9.47
5.24
0.06
-5.19
-9.98
-14.16
-17.99
-21.86
-25.74
-29.24
-31.55
-31.88
-29.85
-25.86
-20.76
-15.47
-10.43
-5.58
-0.61
4.71
10.34
16.25
22.46
29.11
36.12
42.86
48.14
50.75
50.29
47.53
44.19
41.80
40.69
39.69
36.90
31.31
23.58
15.91
10.51
8.10
7.40
5.80
1.19
-6.43
-14.79
-20.56
-21.33
-17.09
-10.25
-4.21
-1.46
-2.31
-5.18
-7.83
-8.78
-7.87
-5.85
-3.37
-0.37
3.92
10.13
17.87
25.53
31.01
32.81
30.89
26.61
21.66
16.78
11.40
4.19
-5.29
-15.54
-23.40
-25.59
-20.69
-10.15
2.21
11.98
16.08
13.73
6.21
-4.37
-15.96
-26.91
-35.59
-40.20
-39.14
-31.92
-19.99
-6.53
5.01
12.70
16.99
20.04
23.78
28.45
32.23
32.54
27.93
19.22
9.38
1.75
-1.84
-1.93
-0.72
-0.31
-1.33
-2.78
-3.14
-1.77
0.43
1.52
-0.35
-5.93
-14.45
-23.99
-31.99
-36.00
-34.17
-25.73
-11.34
7.01
26.28
43.46
56.40
64.55
68.70
70.27
70.55
70.38
70.42
71.36
74.11
79.27
86.71
95.37
103.88
111.41
118.30
125.81
135.24
146.74
158.76
168.49
172.73
169.15
157.15
138.30
115.95
94.46
77.94
68.83
67.01
69.66
72.48
71.68
65.71
55.72
44.49
34.52
26.67
20.09
13.39
6.11
-0.94
-6.50
-10.44
-14.74
-23.14
-39.32
-64.93
-98.54
-136.07
-172.56
-203.98
-228.17
-244.57
-253.54
-255.36
-250.21
-238.51
-221.44
-201.11
-180.18
-160.92
-144.57
-130.95
-118.90
-107.00
-94.25
-80.47
-66.15
-52.10
-39.04
-27.25
-16.62
-6.83
2.33
10.50
16.68
19.61
18.37
13.14
5.45
-2.27
-7.68
-9.56
-8.32
-5.59
-3.18
-2.08
-2.02
-2.03
-1.25
0.36
2.18
3.53
4.27
4.93
6.19
8.26
10.69
12.91
14.95
17.78
22.97
31.66
43.85
58.14
72.32
84.33
92.74
96.85
96.55
92.16
84.62
75.56
67.04
60.82
57.70
57.13
57.78
58.32
58.22
57.86
58.01
59.23
61.49
64.30
66.92
68.50
68.16
64.94
57.98
46.98
32.43
15.73
-1.36
-17.30
-31.33
-43.54
-54.65
-65.44
-76.37
-87.41
-98.16
-107.92
-115.79
-120.88
-122.54
-120.57
-115.31
-107.48
-97.96
-87.49
-76.63
-65.75
-55.21
-45.42
-36.92
-30.21
-25.59
-23.12
-22.61
-23.82
-26.53
-30.38
-34.70
-38.32
-39.75
-37.72
-31.74
-22.58
-12.25
-3.34
2.04
3.02
0.38
-3.89
-7.44
-8.36
-5.76
0.20
8.57
18.03
27.11
34.44
38.77
39.05
34.71
26.01
14.37
2.34
-6.92
-10.82
-8.23
-0.26
10.04
18.72
22.39
19.32
9.92
-3.66
-18.37
-31.12
-39.47
-42.05
-38.73
-30.56
-19.53
-7.98
1.97
8.91
12.44
12.91
11.25
8.61
6.17
4.94
5.55
7.86
10.83
12.97
13.06
10.90
7.60
4.91
4.28
6.06
9.31
12.35
13.56
12.02
7.72
1.38
-5.85
-12.64
-17.61
-19.69
-18.30
-13.77
-7.28
-0.53
4.83
7.69
7.80
5.74
2.81
0.61
0.58
3.29
8.13
13.37
16.98
17.68
15.51
11.70
7.74
4.60
2.44
0.97
0.16
0.46
2.41
5.81
9.29
10.60
7.66
-0.30
-12.02
-24.64
-34.75
-39.78
-38.89
-33.01
-24.24
-14.90
-6.78
-0.78
3.02
5.07
6.00
6.46
7.09
8.49
11.05
14.78
19.11
23.00
25.20
24.80
21.60
16.29
10.10
4.35
-0.09
-2.97
-4.63
-5.57
-6.18
-6.53
-6.54
-6.24
-6.04
-6.63
-8.61
-12.06
-16.29
-19.98
-21.74
-20.65
-16.68
-10.63
-3.75
2.69
7.74
10.88
11.96
11.14
8.77
5.52
2.26
-0.04
-0.58
1.09
4.90
10.33
16.57
22.66
27.73
31.17
32.63
32.05
29.49
25.08
19.01
11.57
3.31
-4.93
-12.16
-17.49
-20.42
-21.05
-19.88
-17.66
-15.01
-12.40
-10.22
-8.95
-9.14
-11.09
-14.55
-18.31
-20.39
-18.66
-11.83
-0.23
13.89
27.02
35.71
37.91
33.86
25.65
16.19
7.78
1.32
-3.45
-7.14
-9.80
-10.80
-9.37
-5.57
-0.76
2.86
3.26
-0.32
-7.06
-15.11
-22.54
-28.19
-31.74
-33.32
-32.99
-30.62
-26.14
-20.03
-13.49
-7.96
-4.36
-2.54
-1.38
0.62
4.47
10.19
16.97
23.63
29.23
33.17
35.09
34.54
31.03
24.34
15.07
4.95
-3.44
-7.47
-5.50
2.29
13.85
25.94
35.28
39.66
38.51
32.72
23.99
14.17
5.09
-1.47
-3.59
0.48
11.42
28.18
47.75
65.93
79.09
85.93
88.13
89.41
93.49
102.13
114.36
127.34
138.03
144.56
146.54
144.31
137.99
127.26
111.91
92.74
71.97
52.50
36.41
23.73
12.09
-2.29
-22.96
-51.76
-88.24
-129.99
-173.36
-214.12
-248.31
-272.61
-284.84
-284.33
-271.99
-250.04
-221.44
-189.19
-156.08
-124.52
-96.80
-75.07
-61.17
-56.25
-60.25
-71.73
-88.14
-106.14
-122.20
-133.09
-136.36
-130.77
-116.75
-96.45
-73.32
-51.25
-33.46
-21.66
-15.80
-14.59
-16.24
-19.18
-22.34
-25.06
-26.72
-26.53
-23.65
-17.56
-8.59
1.70
10.79
16.27
16.87
13.44
8.98
7.61
12.94
26.55
47.26
71.64
95.41
115.07
128.95
137.28
141.59
143.64
144.57
144.77
144.18
142.58
139.80
135.67
129.72
121.56
111.37
100.36
90.47
83.32
78.75
74.13
65.12
47.74
20.84
-12.58
-46.19
-73.02
-88.38
-91.35
-84.19
-70.26
-51.99
-30.52
-6.77
16.82
35.61
43.93
37.93
18.21
-9.61
-36.84
-55.46
-61.73
-57.30
-47.48
-37.86
-31.32
-27.18
-22.68
-15.71
-6.65
1.62
5.52
3.06
-4.88
-15.12
-24.07
-29.71
-32.34
-33.73
-35.37
-37.08
-36.95
-32.53
-22.61
-8.23
7.65
21.64
31.68
37.82
41.70
45.05
48.18
49.79
47.99
41.91
32.64
22.90
15.56
12.06
11.84
12.95
13.43
12.57
11.04
10.04
10.24
11.12
11.31
9.43
4.86
-2.13
-10.67
-19.78
-28.51
-35.78
-40.22
-40.44
-35.55
-25.83
-12.80
1.22
13.98
24.06
31.13
35.64
38.28
39.51
39.43
38.02
35.54
32.59
30.05
28.64
28.50
29.16
29.72
29.43
27.95
25.48
22.47
19.25
15.74
11.51
5.99
-1.20
-10.03
-20.07
-30.57
-40.62
-49.24
-55.51
-58.75
-58.65
-55.43
-49.77
-42.58
-34.73
-26.88
-19.46
-12.72
-6.85
-1.96
2.04
5.43
8.62
11.94
15.36
18.52
20.91
22.25
22.65
22.49
22.09
21.48
20.37
18.57
16.39
14.74
14.74
17.05
21.22
25.69
28.46
28.17
24.78
19.60
14.64
11.91
12.82
18.06
27.69
41.17
57.29
74.18
89.55
101.32
108.32
110.86
110.60
109.91
110.98
115.16
122.77
133.26
145.61
158.46
170.41
180.26
187.38
192.10
195.67
199.82
205.94
213.89
221.57
225.14
220.17
203.46
174.51
136.16
93.81
53.49
19.64
-6.38
-26.42
-44.58
-65.24
-91.52
-124.07
-160.97
-198.35
-231.60
-256.55
-270.39
-272.10
-262.22
-242.49
-215.38
-183.74
-150.54
-118.69
-90.70
-68.29
-51.98
-40.87
-33.01
-26.01
-17.84
-7.47
4.93
18.12
30.22
39.38
44.31
44.59
40.70
33.70
24.71
14.49
3.35
-8.78
-21.90
-35.55
-48.60
-59.37
-66.10
-67.45
-63.06
-53.62
-40.81
-26.83
-13.91
-4.03
1.45
1.95
-2.27
-10.13
-20.09
-30.56
-40.46
-49.53
-58.12
-66.85
-76.00
-85.29
-93.91
-101.02
-106.13
-109.31
-110.90
-111.06
-109.50
-105.49
-98.34
-87.94
-75.00
-60.90
-47.21
-35.08
-24.99
-16.77
-9.95
-4.12
0.92
5.10
8.36
10.72
12.43
13.87
15.45
17.34
19.45
21.36
22.49
22.34
20.64
17.41
12.96
7.77
2.31
-3.02
-8.01
-12.57
-16.60
-19.84
-21.94
-22.45
-21.00
-17.57
-12.40
-6.05
0.88
7.86
14.57
20.90
26.87
32.53
37.94
43.03
47.57
51.16
53.34
53.79
52.58
50.12
47.09
44.12
41.54
39.34
37.24
34.84
31.96
28.71
25.39
22.29
19.50
16.85
14.03
10.88
7.52
4.38
1.97
0.59
0.16
0.33
0.66
0.86
0.86
0.69
0.43
0.18
0.08
0.41
1.40
3.09
5.18
7.09
8.26
8.47
7.92
7.24
7.12
7.96
9.72
11.84
13.47
13.76
12.23
8.93
4.53
-0.01
-3.89
-6.73
-8.73
-10.33
-11.88
-13.43
-14.75
-15.60
-15.96
-16.03
-16.00
-15.83
-15.16
-13.54
-10.69
-6.80
-2.51
1.36
4.18
5.80
6.55
7.00
7.55
8.23
8.71
8.65
8.01
7.17
6.64
6.65
6.90
6.57
4.79
1.19
-3.82
-9.27
-14.06
-17.43
-19.23
-19.87
-20.15
-21.07
-23.65
-28.49
-35.53
-43.71
-51.28
-56.36
-57.69
-55.13
-49.57
-42.40
-34.85
-27.64
-20.92
-14.67
-8.99
-4.21
-0.68
1.57
2.95
4.19
5.90
8.23
10.70
12.55
13.22
12.81
12.14
12.34
14.22
17.70
21.87
25.39
27.31
27.56
26.94
26.51
26.85
27.66
27.99
26.96
24.45
21.35
19.14
19.07
21.56
25.99
31.13
35.87
39.78
43.29
47.38
53.00
60.56
69.55
78.73
86.56
91.83
94.13
94.07
92.99
92.32
92.99
95.10
98.13
101.28
103.85
105.16
104.38
100.40
92.12
78.90
61.23
40.80
20.06
1.54
-12.95
-22.61
-27.70
-29.10
-27.86
-24.82
-20.40
-14.74
-7.94
-0.46
6.76
12.32
14.86
13.61
8.71
1.15
-7.67
-16.58
-24.99
-33.00
-41.08
-49.82
-59.60
-70.51
-82.29
-94.38
-106.09
-116.83
-126.41
-135.07
-143.33
-151.69
-160.35
-169.27
-178.31
-187.55
-197.25
-207.67
-218.67
-229.46
-238.58
-244.22
-244.47
-237.73
-223.15
-201.03
-173.05
-142.11
-111.56
-84.13
-61.02
-41.71
-24.60
-8.15
8.32
24.44
39.31
52.30
63.41
73.17
82.18
90.61
98.13
104.18
108.36
110.68
111.62
111.98
112.68
114.64
118.61
125.07
134.14
145.58
158.79
173.07
187.82
202.78
218.16
234.69
253.36
275.17
300.63
329.37
359.75
388.82
412.58
426.68
427.53
413.27
384.35
343.28
293.76
239.35
182.50
124.19
64.47
3.52
-57.17
-114.33
-163.41
-200.09
-222.09
-230.58
-230.39
-228.89
-233.67
-249.87
-278.06
-313.51
-347.47
-369.95
-373.05
-353.57
-313.69
-259.65
-199.16
-138.96
-83.40
-34.81
5.42
35.72
54.35
60.44
55.15
42.03
26.03
11.65
1.28
-5.43
-10.71
-17.03
-25.55
-35.58
-45.14
-52.17
-55.67
-56.08
-54.89
-53.70
-53.50
-54.31
-55.45
-55.97
-55.07
-52.45
-48.44
-44.00
-40.31
-38.32
-38.21
-39.11
-39.49
-38.02
-34.30
-29.16
-24.16
-20.53
-18.31
-16.33
-12.96
-7.44
-0.62
5.13
6.95
2.85
-7.39
-22.03
-38.11
-52.54
-63.19
-69.36
-71.76
-71.92
-71.23
-70.41
-69.12
-66.41
-61.47
-54.37
-46.27
-39.03
-34.13
-31.87
-31.13
-30.09
-27.33
-22.58
-16.83
-11.37
-6.81
-2.55
2.83
10.39
19.80
29.04
35.22
35.85
30.04
18.76
4.30
-10.95
-25.37
-38.33
-49.80
-59.68
-67.34
-71.73
-71.89
-67.45
-59.03
-48.11
-36.62
-26.40
-18.80
-14.33
-12.73
-13.16
-14.58
-16.20
-17.71
-19.16
-20.59
-21.60
-21.06
-17.55
-10.00
1.55
15.68
30.01
41.98
49.77
52.74
51.43
47.15
41.50
35.99
31.82
29.76
30.09
32.71
37.22
43.13
49.92
57.06
63.91
69.74
73.90
76.01
76.15
74.72
72.08
68.20
62.54
54.37
43.27
29.77
15.35
2.22
-7.55
-12.73
-13.33
-10.48
-5.93
-1.34
2.17
4.22
4.97
4.96
4.93
5.74
8.33
13.56
21.90
33.19
46.54
60.44
73.07
82.62
87.69
87.51
82.25
72.84
60.57
46.48
30.89
13.46
-6.30
-28.26
-51.23
-73.09
-91.52
-104.85
-112.55
-115.10
-113.53
-109.00
-102.65
-95.56
-88.77
-83.05
-78.56
-74.58
-69.78
-62.70
-52.39
-38.83
-22.85
-5.84
10.64
25.12
36.40
43.62
46.44
45.21
40.96
35.22
29.35
24.12
19.47
14.78
9.40
3.00
-4.31
-12.22
-20.62
-29.56
-39.03
-48.53
-56.90
-62.71
-64.86
-63.25
-58.77
-52.87
-46.76
-40.78
-34.43
-26.88
-17.71
-7.24
3.49
13.29
21.36
27.54
32.16
35.66
38.21
39.73
40.11
39.47
38.30
37.25
36.84
37.18
37.86
38.23
37.59
35.47
31.69
26.36
19.90
13.08
7.00
2.97
2.27
5.62
12.93
23.12
34.40
44.84
53.09
58.84
62.84
66.42
70.82
76.60
83.43
90.18
95.35
97.43
95.32
88.50
77.21
62.38
45.50
28.21
11.87
-2.71
-15.37
-26.39
-36.18
-45.06
-53.21
-60.68
-67.60
-74.23
-80.83
-87.49
-93.83
-98.85
-101.11
-99.16
-92.12
-80.20
-64.68
-47.56
-30.88
-16.06
-3.67
6.38
14.47
20.83
25.60
28.91
31.12
32.78
34.45
36.37
38.31
39.57
39.33
36.97
32.53
26.68
20.58
15.40
11.80
9.68
8.23
6.45
3.66
-0.08
-4.11
-7.59
-10.16
-12.18
-14.54
-18.02
-22.51
-26.83
-28.95
-27.00
-20.12
-9.00
4.33
17.32
27.86
34.97
38.78
40.17
40.04
38.86
36.69
33.43
29.32
25.05
21.53
19.39
18.61
18.43
17.90
16.43
14.23
12.22
11.45
12.36
14.35
15.96
15.52
12.04
5.75
-2.03
-9.48
-15.21
-18.74
-20.37
-20.75
-20.26
-18.77
-15.91
-11.54
-6.13
-0.82
3.12
4.86
4.55
3.23
2.31
2.95
5.45
9.25
13.17
15.98
16.96
16.07
13.98
11.64
9.93
9.34
9.94
11.52
13.72
16.21
18.67
20.66
21.66
21.16
18.84
14.71
9.05
2.27
-5.24
-13.24
-21.45
-29.32
-35.93
-40.04
-40.50
-36.71
-29.03
-18.75
-7.68
2.57
11.07
17.79
23.23
27.94
32.10
35.49
37.79
38.97
39.40
39.73
40.52
41.85
43.26
43.96
43.29
41.15
38.10
35.14
33.24
32.79
33.44
34.04
33.18
29.70
23.15
14.09
3.94
-5.59
-13.06
-17.90
-20.55
-22.05
-23.43
-24.98
-25.97
-25.02
-20.83
-12.97
-2.22
9.79
21.27
31.02
38.67
44.55
49.25
53.23
56.62
59.29
60.92
61.09
59.37
55.45
49.35
41.46
32.59
23.79
16.22
10.93
8.79
10.36
15.63
23.74
32.73
39.86
42.29
38.03
26.79
10.09
-9.35
-28.74
-46.17
-61.05
-73.76
-84.85
-94.38
-101.73
-105.93
-106.28
-102.89
-96.67
-88.91
-80.76
-72.83
-65.13
-57.40
-49.43
-41.35
-33.68
-27.09
-22.15
-19.08
-17.66
-17.36
-17.48
-17.44
-16.89
-15.80
-14.40
-13.01
-11.91
-11.08
-10.23
-9.01
-7.24
-5.20
-3.56
-3.11
-4.31
-7.07
-10.75
-14.61
-18.10
-21.09
-23.68
-25.86
-27.31
-27.38
-25.38
-20.91
-14.11
-5.62
3.53
12.24
19.52
24.71
27.59
28.38
27.63
26.08
24.45
23.28
22.86
23.13
23.80
24.39
24.34
23.29
21.10
18.07
14.70
11.60
9.14
7.40
6.11
4.89
3.36
1.33
-1.28
-4.45
-8.24
-12.75
-17.99
-23.65
-28.91
-32.52
-33.20
-30.20
-23.75
-15.10
-6.04
1.74
7.34
10.85
13.02
14.74
16.51
18.26
19.59
20.18
20.07
19.65
19.42
19.67
20.28
20.79
20.56
19.09
16.17
12.00
7.15
2.41
-1.38
-3.56
-3.86
-2.51
-0.23
1.98
3.13
2.59
0.15
-4.06
-9.64
-16.13
-22.85
-28.83
-32.85
-33.77
-30.95
-24.73
-16.44
-8.03
-1.24
3.17
5.67
7.65
10.67
15.60
22.19
29.15
34.71
37.36
36.35
31.94
25.16
17.47
10.19
4.22
-0.10
-2.84
-4.31
-4.82
-4.55
-3.55
-1.89
0.27
2.52
4.27
4.90
3.88
1.01
-3.58
-9.44
-16.04
-22.90
-29.69
-36.14
-41.84
-46.12
-48.10
-47.06
-42.79
-35.90
-27.61
-19.33
-12.00
-5.83
-0.37
5.03
10.65
16.22
20.97
24.12
25.21
24.35
22.03
18.88
15.47
12.21
9.43
7.41
6.39
6.42
7.32
8.61
9.73
10.16
9.63
8.21
6.22
4.17
2.48
1.40
0.86
0.56
0.04
-1.04
-2.68
-4.37
-5.11
-3.62
1.18
9.71
21.45
35.04
48.65
60.63
70.06
76.80
81.35
84.36
86.21
86.97
86.49
84.78
82.10
78.85
75.26
71.22
66.26
59.86
51.79
42.32
32.14
22.19
13.30
6.05
0.79
-2.18
-2.54
0.13
6.16
15.66
28.37
43.68
60.76
78.62
96.24
112.56
126.51
137.17
143.97
146.90
146.64
144.33
141.21
138.14
135.19
131.70
126.60
118.98
108.54
95.78
81.75
67.61
54.22
41.96
30.79
20.60
11.40
3.42
-3.04
-7.80
-10.98
-12.91
-13.96
-14.39
-14.39
-14.21
-14.31
-15.23
-17.42
-20.99
-25.66
-30.93
-36.46
-42.31
-49.05
-57.46
-68.11
-81.00
-95.49
-110.54
-125.05
-138.15
-149.27
-157.93
-163.63
-165.80
-164.10
-158.77
-150.86
-142.27
-135.16
-131.44
-132.10
-136.91
-144.61
-153.38
-161.51
-167.94
-172.55
-176.00
-179.24
-182.87
-186.67
-189.51
-189.73
-185.85
-177.27
-164.60
-149.43
-133.64
-118.58
-104.54
-90.74
-75.91
-59.07
-40.07
-19.71
0.79
20.44
39.00
56.94
74.95
93.32
111.43
127.89
140.89
148.86
150.97
147.38
139.22
128.32
116.96
107.37
101.24
99.31
101.19
105.52
110.39
114.07
115.57
114.90
112.97
111.18
110.79
112.55
116.48
122.01
128.25
134.05
138.21
139.51
136.81
129.42
117.31
101.25
82.56
62.81
43.32
25.02
8.46
-5.95
-17.97
-27.61
-35.19
-41.39
-46.94
-52.22
-57.02
-60.72
-62.79
-63.25
-62.89
-62.90
-64.42
-67.93
-73.08
-78.97
-84.65
-89.49
-93.29
-96.06
-97.75
-98.16
-97.12
-94.80
-91.99
-90.00
-90.26
-93.79
-100.65
-109.71
-118.72
-124.72
-124.76
-116.68
-99.72
-74.81
-44.29
-11.18
21.71
52.48
80.31
105.12
126.96
145.55
160.02
169.13
171.62
166.65
154.07
134.70
110.31
83.42
56.91
33.36
14.48
0.84
-8.03
-13.19
-15.81
-16.84
-16.94
-16.55
-16.06
-15.80
-16.07
-17.08
-18.84
-21.22
-24.06
-27.28
-31.00
-35.48
-41.07
-48.11
-56.73
-66.81
-78.05
-90.02
-102.33
-114.63
-126.55
-137.59
-147.09
-154.36
-158.91
-160.66
-160.07
-157.91
-155.02
-151.91
-148.46
-143.84
-136.80
-126.03
-110.65
-90.55
-66.45
-39.66
-11.75
15.76
41.44
63.89
81.66
93.38
98.16
95.98
87.88
75.79
61.89
48.04
35.36
24.24
14.68
6.58
-0.00
-4.88
-7.86
-8.94
-8.23
-5.89
-2.10
3.03
9.43
17.10
26.02
36.02
46.70
57.33
66.95
74.68
80.12
83.59
86.07
88.56
91.58
94.54
95.96
93.93
86.95
74.60
57.67
37.82
17.03
-2.90
-20.50
-34.63
-44.39
-49.30
-49.63
-46.60
-42.21
-38.60
-37.22
-38.33
-41.14
-44.37
-47.05
-48.77
-49.51
-49.13
-47.18
-43.05
-36.60
-28.63
-20.79
-14.94
-12.23
-12.63
-14.96
-17.50
-18.72
-17.74
-14.82
-11.57
-11.05
-17.20
-33.31
-60.24
-94.95
-130.83
-159.74
-175.21
-174.95
-161.47
-140.47
-118.01
-98.12
-81.98
-68.82
-57.45
-47.50
-39.42
-33.77
-30.42
-28.33
-26.03
-22.39
-17.19
-11.16
-5.58
-1.64
0.08
-0.19
-1.62
-3.26
-4.53
-5.60
-7.31
-10.79
-16.82
-25.23
-34.72
-43.12
-48.02
-47.62
-41.32
-29.91
-15.28
0.29
14.91
27.65
38.69
48.92
59.44
70.79
82.87
95.06
106.71
117.53
127.66
137.25
145.92
152.47
155.06
152.01
142.70
128.11
110.76
93.77
79.84
70.35
65.14
62.98
62.29
61.79
60.79
59.06
56.62
53.79
51.59
51.93
57.14
68.65
85.40
103.03
114.71
113.50
95.32
60.80
15.12
-34.23
-80.43
-119.46
-150.31
-173.64
-189.93
-198.51
-197.96
-187.50
-168.13
-142.83
-115.72
-90.58
-69.71
-53.57
-41.23
-31.29
-22.76
-15.44
-9.74
-6.26
-5.34
-6.80
-10.02
-14.16
-18.40
-21.94
-24.02
-23.84
-20.72
-14.35
-5.11
5.90
17.21
27.59
36.57
44.56
52.36
60.34
67.85
73.20
74.44
70.45
61.71
50.23
38.65
29.08
22.38
18.11
15.18
12.44
9.05
4.49
-1.44
-8.40
-15.35
-20.59
-22.45
-20.32
-15.35
-10.29
-8.36
-11.66
-20.10
-31.37
-41.98
-48.65
-49.46
-44.13
-33.72
-20.03
-5.07
9.46
22.34
32.90
41.04
46.81
50.22
51.33
50.46
48.52
46.85
46.60
47.90
49.56
49.45
45.84
38.54
29.27
21.02
16.44
16.57
20.42
25.63
29.67
30.89
28.86
24.01
17.09
8.72
-0.60
-10.26
-19.25
-26.13
-29.24
-27.29
-20.08
-8.88
3.63
14.25
20.61
22.31
21.24
20.77
24.04
32.34
44.36
56.74
65.72
68.86
65.95
58.99
50.93
44.29
40.05
37.59
35.30
31.72
26.44
20.28
14.84
11.58
10.98
12.29
13.82
13.73
10.78
4.71
-3.98
-14.37
-25.55
-36.65
-46.53
-53.55
-55.76
-51.71
-41.41
-26.81
-11.28
1.81
10.57
15.28
17.84
20.36
23.79
27.57
30.35
31.25
30.55
29.46
29.14
29.74
30.18
28.92
25.12
19.26
12.98
8.32
6.81
8.93
14.00
20.34
25.53
26.95
22.56
11.83
-3.74
-20.73
-34.95
-42.90
-43.07
-36.31
-25.07
-12.19
0.19
11.13
20.56
28.77
36.03
42.72
49.53
57.59
68.02
81.28
96.56
111.54
123.11
128.49
126.55
118.69
108.56
100.85
99.55
106.35
120.16
137.65
154.70
168.07
176.46
180.85
183.94
188.98
198.46
212.87
230.17
246.14
255.60
254.09
239.23
211.45
173.65
130.21
85.82
44.37
8.33
-21.51
-46.00
-67.30
-88.17
-110.89
-136.46
-164.21
-192.15
-217.91
-239.59
-256.08
-266.65
-270.59
-267.10
-255.80
-237.49
-214.40
-189.72
-166.40
-145.99
-128.12
-111.07
-93.00
-73.24
-52.84
-34.05
-19.33
-10.22
-6.83
-7.89
-11.42
-15.42
-18.47
-19.95
-20.02
-19.38
-18.90
-19.29
-20.89
-23.49
-26.37
-28.49
-28.82
-26.64
-21.85
-14.99
-7.10
0.51
6.62
10.30
11.08
9.05
4.89
-0.23
-4.72
-7.00
-6.00
-1.61
5.16
12.52
18.46
21.57
21.51
18.97
15.23
11.52
8.57
6.47
4.87
3.34
1.66
-0.07
-1.44
-1.88
-0.81
2.15
7.08
13.69
21.41
29.55
37.48
44.69
50.74
55.24
57.72
57.73
54.99
49.48
41.49
31.51
20.08
7.68
-5.36
-18.71
-31.97
-44.58
-55.83
-65.14
-72.23
-77.35
-81.26
-84.89
-88.97
-93.58
-98.10
-101.45
-102.64
-101.25
-97.59
-92.58
-87.28
-82.40
-78.06
-73.77
-68.66
-61.86
-52.81
-41.45
-28.24
-14.08
-0.16
12.25
22.02
28.42
31.33
31.39
29.80
27.98
27.10
27.71
29.59
32.00
33.92
34.57
33.59
31.10
27.57
23.61
19.73
16.30
13.47
11.22
9.47
8.16
7.30
6.92
6.98
7.25
7.28
6.55
4.68
1.55
-2.58
-7.11
-11.28
-14.35
-15.83
-15.64
-14.15
-11.98
-9.82
-8.09
-6.83
-5.74
-4.39
-2.59
-0.54
1.18
1.93
1.33
-0.47
-2.79
-4.76
-5.60
-5.02
-3.32
-1.22
0.40
0.81
-0.25
-2.51
-5.31
-7.86
-9.67
-10.68
-11.18
-11.57
-11.95
-12.04
-11.39
-9.81
-7.57
-5.47
-4.38
-4.78
-6.37
-8.16
-8.88
-7.50
-3.67
2.27
9.48
16.92
23.63
28.95
32.59
34.67
35.56
35.74
35.59
35.20
34.40
32.85
30.26
26.52
21.88
16.83
11.99
7.82
4.43
1.61
-1.06
-3.87
-6.85
-9.77
-12.29
-14.28
-16.05
-18.30
-21.82
-27.06
-33.76
-40.87
-46.88
-50.33
-50.39
-47.18
-41.71
-35.39
-29.48
-24.59
-20.48
-16.28
-11.00
-4.01
4.73
14.66
24.90
34.63
43.39
51.15
58.27
65.34
72.85
81.06
89.90
99.07
108.21
116.86
124.39
129.82
131.86
129.33
121.75
109.82
95.41
80.88
68.14
57.82
49.20
40.86
31.55
20.90
9.47
-1.81
-12.18
-21.40
-29.54
-36.68
-42.71
-47.51
-51.08
-53.80
-56.28
-59.00
-62.00
-64.92
-67.16
-68.31
-68.23
-67.12
-65.34
-63.30
-61.37
-60.00
-59.64
-60.59
-62.82
-65.87
-68.95
-71.37
-72.90
-73.87
-74.99
-76.80
-79.32
-81.95
-83.76
-84.05
-82.70
-80.29
-77.71
-75.75
-74.67
-74.24
-73.92
-73.24
-71.94
-69.87
-66.79
-62.27
-55.76
-46.88
-35.64
-22.67
-9.05
3.93
15.17
24.01
30.36
34.63
37.54
39.86
42.16
44.62
47.02
48.91
49.79
49.38
47.68
44.96
41.63
38.03
34.38
30.72
26.96
22.93
18.50
13.67
8.52
3.28
-1.78
-6.35
-10.21
-13.24
-15.47
-17.05
-18.24
-19.27
-20.26
-21.07
-21.33
-20.55
-18.34
-14.64
-9.84
-4.66
0.12
3.99
6.87
9.11
11.17
13.35
15.69
17.88
19.61
20.72
21.33
21.77
22.39
23.42
24.81
26.42
28.09
29.79
31.66
33.90
36.63
39.77
43.01
45.89
48.02
49.27
49.79
49.90
49.87
49.71
49.00
47.08
43.28
37.27
29.21
19.72
9.62
-0.26
-9.22
-16.72
-22.26
-25.45
-26.19
-24.78
-22.05
-19.15
-17.14
-16.71
-17.80
-19.87
-22.16
-24.16
-25.79
-27.38
-29.41
-32.20
-35.73
-39.66
-43.40
-46.35
-48.08
-48.42
-47.50
-45.71
-43.57
-41.59
-40.20
-39.64
-39.98
-41.09
-42.66
-44.26
-45.47
-45.93
-45.54
-44.52
-43.32
-42.53
-42.67
-44.06
-46.78
-50.64
-55.24
-60.01
-64.29
-67.41
-68.81
-68.19
-65.57
-61.29
-55.97
-50.31
-44.96
-40.37
-36.79
-34.25
-32.59
-31.50
-30.62
-29.55
-28.02
-25.96
-23.42
-20.58
-17.59
-14.51
-11.29
-7.76
-3.73
0.99
6.50
12.83
19.90
27.44
34.99
42.01
48.01
52.79
56.43
59.28
61.69
63.84
65.54
66.27
65.39
62.43
57.37
50.78
43.77
37.68
33.63
32.15
33.04
35.41
38.15
40.24
41.11
40.68
39.21
37.07
34.58
31.97
29.36
26.86
24.44
21.96
19.11
15.53
11.01
5.66
-0.04
-5.32
-9.51
-12.21
-13.56
-14.02
-14.21
-14.62
-15.43
-16.56
-17.81
-19.05
-20.31
-21.79
-23.73
-26.42
-29.99
-34.43
-39.48
-44.62
-49.06
-51.89
-52.33
-49.99
-45.01
-38.05
-29.97
-21.52
-13.03
-4.39
4.75
14.62
25.08
35.54
45.14
53.17
59.28
63.65
66.81
69.46
72.14
75.03
78.00
80.78
83.13
85.04
86.73
88.48
90.58
93.16
96.22
99.70
103.56
107.83
112.51
117.44
122.05
125.36
126.07
122.95
115.14
102.49
85.51
65.17
42.59
18.79
-5.40
-29.24
-52.06
-73.12
-91.64
-106.88
-118.13
-124.92
-127.01
-124.58
-118.18
-108.69
-97.10
-84.36
-71.25
-58.44
-46.55
-36.14
-27.50
-20.59
-14.86
-9.49
-3.74
2.76
9.86
17.08
23.99
30.50
36.85
43.49
50.75
58.71
67.21
76.05
85.01
93.85
102.20
109.56
115.42
119.55
122.24
124.15
125.87
127.37
127.54
124.37
115.62
99.85
77.09
49.06
18.59
-11.32
-38.37
-61.29
-79.64
-93.32
-102.18
-106.04
-104.99
-99.68
-91.38
-81.65
-71.74
-62.15
-52.43
-41.45
-27.98
-11.35
8.18
29.46
50.92
71.21
89.71
106.56
122.32
137.34
151.25
162.83
170.26
171.41
164.34
147.72
121.34
86.53
46.25
4.63
-34.04
-66.40
-90.88
-107.60
-117.73
-122.56
-122.90
-119.13
-111.54
-100.88
-88.33
-75.41
-63.50
-53.79
-47.20
-44.47
-45.96
-51.21
-58.73
-65.98
-70.07
-68.74
-61.24
-48.39
-32.12
-14.45
3.35
20.89
38.42
56.44
75.37
95.39
116.12
136.14
152.57
161.35
158.32
140.77
108.80
65.56
16.08
-34.59
-83.20
-129.18
-174.26
-221.34
-272.71
-328.53
-385.87
-438.73
-479.39
-500.58
-497.80
-470.75
-423.17
-361.37
-292.27
-222.01
-155.49
-96.58
-48.29
-12.46
10.90
23.97
30.51
34.65
39.35
45.69
53.01
59.81
64.73
67.15
67.21
65.54
62.80
59.55
56.06
52.36
48.36
44.03
39.60
35.63
32.96
32.46
34.67
39.46
46.05
53.24
59.80
64.88
68.21
70.02
70.79
71.03
71.04
70.89
70.39
69.25
67.21
64.14
60.16
55.58
50.77
46.00
41.37
36.86
32.41
28.08
24.05
20.51
17.59
15.24
13.25
11.39
9.43
7.18
4.54
1.48
-1.86
-5.19
-7.99
-9.72
-9.90
-8.41
-5.45
-1.50
2.86
7.15
11.12
14.73
18.03
21.02
23.69
25.90
27.52
28.49
28.85
28.71
28.23
27.53
26.64
25.58
24.32
22.89
21.29
19.58
17.82
16.05
14.29
12.49
10.58
8.46
6.03
3.17
-0.21
-4.13
-8.46
-12.85
-16.70
-19.29
-20.00
-18.47
-14.82
-9.54
-3.38
2.98
9.01
14.45
19.22
23.29
26.64
29.26
31.12
32.27
32.80
32.82
32.48
31.98
31.43
30.92
30.37
29.68
28.69
27.32
25.60
23.62
21.50
19.35
17.15
14.91
12.55
10.04
7.28
4.14
0.45
-3.88
-8.67
-13.45
-17.43
-19.75
-19.72
-17.10
-12.22
-5.84
1.05
7.58
13.21
17.77
21.38
24.25
26.57
28.38
29.67
30.42
30.70
30.60
30.22
29.53
28.40
26.65
24.22
21.23
17.98
14.82
12.06
9.81
7.99
6.37
4.76
2.97
0.93
-1.43
-4.12
-7.25
-10.92
-15.20
-19.96
-24.81
-29.08
-31.92
-32.59
-30.71
-26.45
-20.50
-13.82
-7.33
-1.63
3.10
6.97
10.17
12.75
14.63
15.62
15.59
14.62
13.03
11.28
9.89
9.14
9.07
9.40
9.74
9.71
9.12
8.03
6.62
5.08
3.53
1.98
0.36
-1.38
-3.32
-5.58
-8.31
-11.65
-15.54
-19.64
-23.26
-25.58
-25.91
-23.94
-19.91
-14.46
-8.47
-2.71
2.28
6.28
9.33
11.54
13.02
13.82
13.91
13.36
12.34
11.13
10.09
9.47
9.31
9.40
9.36
8.81
7.54
5.58
3.19
0.73
-1.51
-3.48
-5.34
-7.46
-10.20
-13.83
-18.37
-23.55
-28.86
-33.62
-37.15
-38.83
-38.31
-35.55
-30.88
-24.94
-18.52
-12.35
-6.88
-2.27
1.57
4.75
7.36
9.32
10.54
10.98
10.80
10.29
9.80
9.63
9.91
10.59
11.49
12.38
13.05
13.37
13.28
12.79
11.95
10.84
9.49
7.92
6.10
3.96
1.43
-1.53
-4.89
-8.43
-11.67
-13.98
-14.70
-13.34
-9.82
-4.50
1.84
8.38
14.34
19.32
23.18
26.00
27.88
28.89
29.04
28.39
27.05
25.25
23.20
21.07
18.95
16.83
14.71
12.61
10.59
8.68
6.89
5.17
3.44
1.65
-0.21
-2.09
-3.96
-5.80
-7.64
-9.57
-11.73
-14.29
-17.32
-20.78
-24.31
-27.34
-29.11
-29.00
-26.72
-22.47
-16.84
-10.66
-4.67
0.51
4.56
7.30
8.73
8.98
8.32
7.17
5.98
5.15
4.88
5.15
5.84
6.82
8.01
9.38
10.83
12.18
13.17
13.54
13.17
12.07
10.44
8.50
6.47
4.39
2.20
-0.24
-3.09
-6.46
-10.34
-14.63
-19.06
-23.23
-26.57
-28.46
-28.38
-26.09
-21.75
-15.94
-9.51
-3.35
1.86
5.78
8.48
10.17
11.12
11.53
11.49
11.01
10.17
9.12
8.10
7.35
7.00
7.02
7.23
7.37
7.24
6.73
5.87
4.72
3.34
1.73
-0.13
-2.24
-4.58
-7.04
-9.62
-12.39
-15.42
-18.75
-22.20
-25.37
-27.68
-28.56
-27.60
-24.74
-20.26
-14.74
-8.86
-3.27
1.56
5.45
8.39
10.56
12.13
13.23
13.92
14.24
14.24
14.08
13.91
13.85
13.91
14.04
14.14
14.12
13.95
13.56
12.93
11.99
10.75
9.28
7.71
6.23
4.97
3.98
3.18
2.35
1.21
-0.52
-3.06
-6.46
-10.58
-14.97
-19.00
-21.91
-23.07
-22.22
-19.58
-15.68
-11.27
-6.96
-3.04
0.48
3.75
6.86
9.79
12.36
14.35
15.69
16.46
16.85
17.05
17.23
17.43
17.62
17.71
17.67
17.44
17.05
16.56
16.02
15.46
14.78
13.86
12.55
10.80
8.71
6.49
4.40
2.60
1.09
-0.30
-1.85
-3.83
-6.41
-9.65
-13.39
-17.34
-20.99
-23.73
-25.00
-24.41
-21.97
-18.07
-13.34
-8.43
-3.84
0.21
3.71
6.72
9.30
11.46
13.19
14.52
15.53
16.31
16.91
17.34
17.60
17.72
17.76
17.77
17.78
17.74
17.54
17.08
16.29
15.20
13.86
12.38
10.81
9.14
7.36
5.46
3.55
1.74
0.14
-1.25
-2.54
-3.90
-5.48
-7.34
-9.43
-11.67
-14.07
-16.68
-19.58
-22.74
-25.88
-28.48
-29.91
-29.59
-27.29
-23.21
-17.92
-12.19
-6.70
-1.88
2.20
5.62
8.46
10.62
11.88
11.99
10.94
9.01
6.76
4.84
3.70
3.53
4.18
5.28
6.41
7.24
7.56
7.37
6.78
5.94
5.01
4.00
