1699372874.00
64.000000
-0.00
-0.00
-0.00
-0.00
-0.00
-0.00
-0.00
-0.00
-0.00
-0.00
0.00
0.01
0.01
-0.00
-0.03
-0.05
-0.05
0.00
0.13
0.36
0.66
1.01
1.37
1.72
2.06
2.40
2.79
3.24
3.80
4.42
5.06
5.66
6.20
6.68
7.15
7.68
8.31
9.14
10.09
11.04
11.88
12.56
13.14
13.76
14.65
15.96
17.91
20.32
22.90
25.38
27.58
29.57
31.68
34.32
37.81
42.54
48.15
54.10
59.83
64.97
69.58
74.14
79.34
85.71
93.76
103.00
112.62
121.73
129.77
136.75
143.30
150.75
157.77
166.64
177.95
191.79
206.97
220.57
228.25
225.36
208.53
176.87
132.76
80.05
23.07
-34.94
-92.44
-149.16
-205.23
-260.37
-313.74
-363.87
-409.83
-450.91
-486.50
-515.74
-537.23
-549.22
-549.96
-538.37
-514.21
-478.67
-433.88
-382.45
-327.02
-269.84
-212.63
-156.66
-102.95
-52.37
-5.90
35.58
71.43
101.35
125.50
144.38
158.69
169.15
176.37
180.75
182.57
182.07
179.51
175.23
169.65
163.18
156.15
148.81
141.30
133.69
126.02
118.33
110.69
103.16
95.80
88.68
81.83
75.25
68.95
62.95
57.25
51.86
46.78
42.03
37.59
33.45
29.61
26.07
22.81
19.83
17.11
14.67
12.48
10.54
8.83
7.35
6.07
4.97
4.05
3.27
2.62
2.09
1.65
1.30
1.01
0.79
0.61
0.48
0.37
0.29
0.24
0.20
0.18
0.17
0.17
0.18
0.20
0.23
0.26
0.30
0.34
0.38
0.42
0.47
0.52
0.57
0.62
0.67
0.73
0.79
0.85
0.93
1.01
1.10
1.20
1.31
1.43
1.57
1.73
1.90
2.09
2.31
2.55
2.81
3.10
3.42
3.77
4.16
4.57
5.02
5.51
6.03
6.60
7.21
7.86
8.55
9.28
10.07
10.90
11.77
12.69
13.66
14.69
15.78
16.93
18.13
19.39
20.67
21.94
23.11
24.06
24.64
24.70
24.12
22.80
20.76
18.00
14.63
10.69
6.32
1.67
-3.09
-7.78
-12.17
-16.06
-19.26
-21.66
-23.26
-24.14
-24.49
-24.49
-24.29
-23.98
-23.54
-22.91
-22.03
-20.95
-19.86
-18.99
-18.54
-18.64
-19.17
-19.80
-20.17
-19.99
-19.30
-18.43
-17.85
-18.04
-19.23
-21.29
-23.68
-25.70
-26.85
-27.10
-27.04
-27.39
-28.97
-32.25
-37.07
-42.72
-48.29
-53.00
-56.58
-59.39
-61.87
-64.85
-69.51
-77.12
-88.46
-102.93
-117.79
-128.32
-129.15
-115.89
-87.64
-47.86
-3.13
39.24
73.89
98.92
115.89
125.24
128.63
127.64
123.43
117.09
110.10
104.28
101.40
102.61
108.27
118.60
133.53
152.96
176.68
204.05
233.41
261.94
285.83
301.07
304.82
295.81
274.61
243.29
204.60
161.08
114.63
66.80
19.47
-24.34
-60.85
-86.53
-99.52
-100.58
-93.08
-81.73
-70.89
-63.15
-58.88
-56.97
-56.16
-56.10
-57.52
-61.78
-69.92
-82.07
-97.28
-113.93
-130.37
-145.49
-158.90
-170.61
-180.72
-188.96
-194.62
-196.74
-194.62
-188.25
-178.52
-166.91
-154.94
-143.39
-132.09
-120.00
-105.78
-88.49
-67.94
-44.61
-19.51
6.02
30.35
51.54
67.76
77.74
81.47
80.36
76.93
73.84
72.97
74.97
79.34
84.99
90.75
95.69
99.07
100.26
98.61
93.62
85.12
73.46
59.55
44.72
30.24
16.77
4.08
-8.99
-23.88
-41.66
-62.37
-85.07
-108.29
-130.82
-152.11
-172.23
-191.39
-209.51
-225.98
-239.90
-250.47
-257.36
-260.75
-260.88
-257.65
-250.37
-237.88
-219.09
-193.50
-161.45
-123.84
-81.93
-37.31
7.80
50.11
85.43
109.72
120.71
119.25
109.53
97.56
88.89
86.49
90.24
97.92
107.00
115.96
124.55
132.80
140.18
145.10
145.74
141.18
132.18
121.04
110.73
103.49
99.91
98.84
98.11
95.62
90.23
81.98
71.80
60.87
50.01
39.38
28.49
16.59
2.98
-12.77
-30.46
-49.41
-68.51
-86.37
-101.35
-111.72
-116.21
-114.80
-109.27
-103.14
-100.73
-105.63
-119.34
-140.48
-165.00
-187.37
-202.04
-204.78
-193.59
-169.06
-134.36
-94.58
-55.50
-21.89
3.95
22.68
37.21
51.06
66.89
85.98
108.54
134.25
162.44
191.59
218.75
239.63
249.54
245.13
225.85
194.27
155.25
114.22
75.63
42.45
16.35
-1.55
-10.22
-8.82
2.84
23.86
52.03
84.07
116.18
144.63
166.17
178.38
179.76
170.05
150.30
122.90
91.39
59.88
32.19
11.05
-2.51
-9.20
-11.09
-10.81
-10.72
-12.21
-15.59
-20.30
-25.48
-30.36
-34.48
-37.62
-39.68
-40.67
-40.70
-40.05
-39.03
-37.83
-36.41
-34.44
-31.46
-27.12
-21.44
-14.74
-7.58
-0.47
6.27
12.63
18.76
25.04
32.05
40.43
50.66
62.66
75.62
88.04
98.09
104.15
105.33
101.67
94.09
83.94
72.53
60.85
49.53
38.98
29.45
21.08
13.60
6.28
-2.09
-12.74
-26.43
-42.93
-61.08
-79.15
-95.54
-109.37
-120.50
-129.19
-135.60
-139.54
-140.62
-138.69
-134.11
-127.72
-120.49
-113.01
-105.33
-97.16
-88.28
-78.83
-69.31
-60.32
-52.25
-45.19
-38.97
-33.38
-28.23
-23.42
-18.83
-14.37
-10.13
-6.35
-3.44
-1.71
-1.11
-1.17
-1.17
-0.57
0.79
2.57
4.18
5.22
5.58
5.47
5.09
4.46
3.42
1.83
-0.18
-2.16
-3.50
-3.75
-2.88
-1.22
0.70
2.42
3.68
4.38
4.51
4.10
3.28
2.23
1.18
0.29
-0.38
-0.85
-1.11
-1.07
-0.64
0.17
1.09
1.72
1.75
1.26
0.71
0.70
1.64
3.47
5.75
7.96
9.82
11.43
13.12
15.05
17.11
18.91
20.16
20.92
21.64
22.97
25.26
28.35
31.55
33.98
35.07
34.74
33.46
31.92
30.71
30.09
29.96
30.03
29.89
29.22
27.79
25.59
22.74
19.52
16.27
13.27
10.66
8.44
6.49
4.70
3.00
1.35
-0.27
-1.89
-3.47
-4.95
-6.26
-7.32
-8.15
-8.76
-9.13
-9.10
-8.43
-6.84
-4.21
-0.71
3.25
7.05
10.06
11.77
11.96
10.78
8.76
6.70
5.42
5.47
6.84
8.91
10.62
10.89
9.09
5.36
0.63
-3.80
-6.86
-8.27
-8.79
-9.86
-13.03
-19.23
-28.45
-39.72
-51.63
-62.61
-71.34
-76.86
-79.04
-79.03
-79.33
-83.14
-92.70
-107.68
-124.30
-136.46
-138.25
-126.90
-104.30
-76.21
-49.55
-29.28
-16.59
-9.23
-3.60
2.97
10.96
18.77
23.96
24.50
19.43
8.73
-7.21
-28.05
-53.60
-83.55
-117.17
-153.09
-189.30
-223.23
-252.01
-272.74
-283.03
-281.59
-268.50
-245.44
-215.26
-181.82
-149.38
-122.12
-103.48
-95.20
-96.50
-103.98
-112.27
-115.56
-109.58
-92.88
-67.20
-36.60
-5.95
20.54
40.20
52.02
56.18
53.32
44.16
29.40
10.14
-11.64
-33.04
-50.75
-62.35
-67.37
-67.67
-66.45
-66.64
-69.37
-73.61
-77.24
-78.52
-77.24
-74.63
-72.24
-70.61
-68.76
-64.75
-56.86
-44.69
-29.38
-12.85
3.18
18.06
32.33
47.24
63.98
83.00
103.60
124.03
141.99
155.36
162.97
165.01
162.89
158.61
153.86
149.26
144.22
137.42
127.74
115.23
101.43
88.96
80.41
77.20
78.98
83.76
88.76
91.48
90.49
85.71
78.18
69.76
62.62
58.89
60.32
67.70
80.52
96.95
114.29
129.84
141.76
149.36
152.95
153.25
150.95
146.58
140.71
134.17
128.06
123.46
120.94
120.26
120.43
120.00
117.59
112.36
104.26
93.98
82.74
71.83
62.30
54.53
48.30
42.86
37.30
30.88
23.42
15.46
8.27
3.53
2.77
6.79
15.29
26.85
39.44
51.17
60.88
68.21
73.33
76.33
76.94
74.73
69.62
62.26
54.04
46.57
40.97
37.38
34.93
32.22
27.95
21.44
12.79
2.78
-7.50
-17.01
-25.02
-31.25
-35.86
-39.27
-41.97
-44.30
-46.27
-47.42
-46.79
-43.04
-34.75
-20.97
-1.77
21.53
46.50
70.24
90.22
104.96
114.10
118.06
117.52
113.00
105.02
94.46
82.80
71.98
63.83
59.27
57.92
58.20
58.05
55.81
50.82
43.56
35.13
26.72
18.98
11.94
5.18
-1.78
-9.26
-17.39
-26.12
-35.27
-44.28
-52.03
-56.83
-56.86
-50.96
-39.23
-23.34
-5.96
10.09
22.81
31.43
36.26
38.08
37.55
35.06
30.87
25.54
20.03
15.53
12.99
12.59
13.63
14.78
14.61
12.28
7.75
1.78
-4.55
-10.33
-15.16
-19.24
-23.02
-27.02
-31.61
-37.00
-43.27
-50.28
-57.46
-63.59
-66.91
-65.70
-58.94
-46.92
-31.32
-14.63
0.71
13.16
22.29
28.59
32.79
35.41
36.53
36.05
34.06
31.06
27.91
25.49
24.34
24.42
25.10
25.47
24.65
22.11
17.85
12.38
6.46
0.78
-4.23
-8.58
-12.63
-16.82
-21.51
-26.92
-33.11
-40.03
-47.33
-54.21
-59.25
-60.62
-56.69
-46.78
-31.74
-13.87
3.80
18.56
28.94
34.88
37.36
37.52
36.10
33.36
29.39
24.59
19.83
16.20
14.50
14.79
16.35
18.01
18.61
17.45
14.45
9.97
4.57
-1.21
-7.05
-12.80
-18.43
-23.92
-29.22
-34.24
-38.97
-43.56
-48.32
-53.46
-58.63
-62.67
-63.66
-59.57
-49.15
-32.68
-12.10
9.63
29.47
45.27
56.12
62.22
64.26
63.09
59.44
54.08
47.93
41.99
37.14
33.79
31.80
30.48
28.93
26.35
22.29
16.73
10.01
2.61
-4.96
-12.28
-19.09
-25.22
-30.66
-35.51
-40.11
-44.90
-50.45
-57.26
-65.46
-74.64
-83.56
-90.26
-92.52
-88.51
-77.62
-60.86
-40.74
-20.46
-2.91
10.24
18.78
23.61
26.01
27.00
27.08
26.38
25.01
23.31
21.74
20.73
20.38
20.37
20.05
18.78
16.11
12.01
6.77
0.93
-5.06
-10.88
-16.47
-21.84
-27.01
-31.86
-36.22
-40.03
-43.52
-47.32
-52.25
-58.83
-66.77
-74.58
-79.93
-80.30
-74.05
-61.14
-43.18
-22.89
-3.07
14.19
27.91
38.11
45.36
50.48
54.29
57.66
61.38
66.11
72.15
79.39
87.35
95.32
102.45
107.82
110.62
110.23
106.51
99.64
90.03
77.87
63.16
45.93
26.73
6.89
-11.73
-27.38
-39.24
-47.75
-54.37
-60.56
-66.96
-72.90
-76.73
-76.66
-71.63
-61.83
-48.54
-33.64
-18.90
-5.53
5.82
14.95
21.90
26.84
30.14
32.32
33.84
34.88
35.12
33.81
30.20
23.86
14.87
3.62
-9.42
-23.77
-38.68
-52.92
-64.74
-72.39
-74.82
-72.32
-66.47
-59.54
-53.59
-49.70
-47.76
-46.85
-45.91
-44.43
-42.64
-41.26
-40.73
-40.68
-39.88
-36.86
-30.83
-22.48
-13.97
-7.82
-5.57
-6.78
-9.29
-10.37
-8.38
-3.55
2.23
6.72
8.81
9.23
10.20
14.11
22.15
33.35
44.95
53.53
56.50
53.19
44.91
34.17
23.37
13.85
5.60
-2.16
-10.16
-18.45
-26.44
-33.32
-38.47
-41.51
-41.91
-38.59
-30.07
-15.12
6.26
32.35
59.97
85.54
106.47
122.29
134.85
147.69
164.63
188.26
218.94
254.42
290.50
322.26
345.48
357.82
359.23
351.56
337.69
320.45
302.04
283.76
266.27
249.92
234.93
221.36
208.93
196.87
183.92
168.69
150.03
127.56
101.88
74.35
46.67
20.21
-4.60
-28.41
-52.73
-79.27
-109.17
-142.43
-177.84
-213.54
-247.72
-279.46
-309.08
-337.97
-368.23
-402.19
-442.01
-488.99
-542.68
-599.69
-653.52
-695.44
-716.87
-712.17
-680.78
-627.42
-560.55
-489.52
-422.05
-362.91
-313.94
-275.11
-245.56
-224.27
-210.05
-201.15
-194.95
-187.93
-176.22
-156.64
-127.94
-91.69
-51.93
-13.75
18.62
43.44
61.62
75.65
87.96
99.58
110.13
118.62
124.55
128.41
131.49
135.00
139.51
144.69
149.57
152.94
153.64
150.78
143.86
133.11
119.60
105.08
91.42
79.70
69.82
60.58
50.43
38.28
23.95
8.07
-8.28
-23.83
-37.04
-46.08
-48.97
-44.31
-32.13
-14.36
5.60
24.09
38.54
48.22
54.13
57.87
60.60
62.61
63.51
63.09
61.78
60.73
61.12
63.48
67.23
70.91
72.85
71.96
68.13
62.23
55.57
49.29
44.02
39.72
35.94
32.11
27.86
23.04
17.61
11.48
4.46
-3.46
-11.72
-18.84
-22.65
-20.95
-12.58
1.83
19.80
37.82
52.72
62.76
67.97
69.61
69.19
67.68
65.32
62.06
58.06
54.00
50.81
49.16
49.06
49.80
50.21
49.24
46.27
41.29
34.84
27.69
20.60
13.97
7.74
1.47
-5.36
-12.93
-20.89
-28.50
-35.11
-40.65
-45.56
-50.34
-54.72
-57.33
-55.94
-48.64
-34.93
-16.35
3.92
22.35
36.42
45.23
49.46
50.46
49.40
46.97
43.43
39.11
34.67
31.03
28.97
28.72
29.76
31.05
31.41
29.98
26.55
21.46
15.39
8.99
2.78
-2.99
-8.22
-12.93
-17.20
-21.18
-25.18
-29.56
-34.70
-40.74
-47.39
-53.70
-58.11
-58.74
-53.97
-43.20
-27.40
-8.92
9.03
23.61
33.24
38.03
39.31
38.77
37.65
36.36
34.83
32.93
30.92
29.34
28.68
29.02
29.90
30.53
30.26
28.76
26.07
22.51
18.38
13.90
9.25
4.62
0.23
-3.73
-7.27
-10.60
-14.19
-18.59
-24.22
-31.08
-38.49
-44.98
-48.52
-47.06
-39.32
-25.45
-7.27
12.15
29.41
41.94
48.78
50.64
49.17
46.10
42.42
38.30
33.52
28.14
22.71
18.23
15.54
14.86
15.56
16.42
16.15
13.95
9.71
3.99
-2.32
-8.41
-13.81
-18.45
-22.60
-26.61
-30.72
-34.95
-39.27
-43.68
-48.26
-52.85
-56.76
-58.45
-55.97
-47.59
-32.84
-12.92
9.52
31.34
50.09
64.71
75.50
83.33
88.85
92.07
92.64
90.42
86.03
80.64
75.45
70.94
66.65
61.49
54.42
45.10
34.13
22.73
12.31
3.97
-1.70
-4.59
-5.08
-3.84
-1.86
-0.19
0.25
-0.89
-3.16
-5.36
-5.89
-3.38
2.65
11.45
21.20
29.48
34.03
33.42
27.34
16.61
2.95
-11.23
-23.28
-30.83
-32.56
-28.72
-21.28
-13.28
-7.63
-6.03
-8.34
-13.23
-19.22
-25.75
-33.47
-43.64
-57.01
-73.02
-89.84
-105.00
-116.45
-123.25
-125.53
-124.22
-120.49
-115.62
-110.88
-107.54
-106.47
-107.63
-109.65
-110.01
-105.88
-95.35
-78.41
-57.22
-35.46
-17.20
-5.76
-3.02
-9.29
-23.47
-43.25
-65.38
-85.88
-100.55
-105.81
-99.64
-82.27
-56.17
-25.38
5.83
34.21
58.20
77.92
94.50
109.17
122.68
135.07
145.83
154.15
159.12
159.91
156.07
147.83
136.59
124.95
116.26
113.67
118.96
131.72
149.19
166.90
179.91
184.25
177.90
161.20
136.49
107.11
76.40
46.88
20.05
-3.30
-22.61
-37.28
-46.75
-50.88
-50.38
-46.75
-41.88
-37.31
-33.70
-30.80
-27.92
-24.60
-21.07
-18.29
-17.33
-18.79
-22.49
-27.77
-33.94
-40.74
-48.11
-55.72
-62.52
-66.81
-66.80
-61.61
-51.81
-39.32
-26.77
-16.56
-10.21
-8.26
-10.43
-15.94
-23.63
-32.17
-40.19
-46.53
-50.52
-51.98
-51.15
-48.49
-44.71
-40.78
-37.86
-37.11
-39.16
-43.80
-50.05
-56.76
-63.32
-70.19
-78.76
-90.73
-107.32
-128.79
-154.31
-182.19
-210.13
-235.47
-255.43
-267.54
-270.16
-263.00
-247.25
-225.34
-200.13
-174.18
-149.14
-125.59
-103.27
-81.52
-59.70
-37.49
-15.08
6.84
27.37
45.66
61.26
74.14
84.56
92.98
99.95
106.09
112.06
118.28
124.59
130.00
133.01
132.27
127.30
118.55
107.00
93.27
77.21
58.33
36.95
15.25
-2.80
-12.76
-11.80
-0.25
18.28
38.51
55.79
67.83
74.96
78.90
81.17
81.89
80.07
74.67
65.86
55.44
46.14
40.34
38.89
40.89
44.26
46.86
47.33
45.37
41.46
36.33
30.58
24.54
18.44
12.50
6.98
2.17
-1.77
-5.03
-8.26
-12.36
-17.99
-24.79
-31.04
-34.05
-31.36
-22.06
-7.57
8.77
23.20
33.21
38.43
40.28
40.78
41.15
41.43
40.72
38.28
34.27
29.83
26.46
25.15
25.89
27.71
29.22
29.21
27.09
22.98
17.57
11.74
6.28
1.66
-2.03
-5.04
-7.79
-10.79
-14.57
-19.63
-26.30
-34.42
-43.09
-50.58
-54.63
-53.14
-45.12
-31.18
-13.58
4.55
20.31
31.94
39.14
42.70
43.72
42.98
40.78
37.14
32.36
27.22
22.86
20.37
20.19
21.88
24.25
25.81
25.30
22.04
16.15
8.37
-0.17
-8.18
-14.65
-19.11
-21.81
-23.57
-25.49
-28.55
-33.27
-39.53
-46.56
-53.02
-57.16
-57.21
-51.84
-40.81
-25.23
-7.45
9.67
23.73
33.49
38.95
40.92
40.33
37.89
34.03
29.31
24.59
20.86
18.91
18.83
19.99
21.32
21.78
20.81
18.35
14.65
10.10
5.04
-0.25
-5.44
-10.20
-14.34
-17.87
-21.06
-24.37
-28.23
-32.93
-38.39
-44.12
-49.18
-52.20
-51.69
-46.45
-36.15
-21.64
-4.87
11.61
25.48
35.29
40.83
42.80
42.39
40.69
38.42
35.99
33.65
31.60
30.05
29.03
28.39
27.80
26.96
25.84
24.66
23.69
22.93
21.96
20.08
16.73
11.92
6.48
1.78
-0.89
-1.02
0.71
2.57
2.48
-0.97
-7.69
-15.65
-21.49
-21.58
-13.55
2.69
24.73
48.45
69.42
84.24
91.38
91.45
86.92
81.34
78.11
79.40
84.98
91.97
95.51
90.36
72.93
42.90
3.62
-39.09
-79.10
-112.32
-137.75
-157.01
-172.44
-185.15
-194.01
-196.13
-188.66
-170.61
-143.92
-112.88
-82.46
-56.48
-36.75
-23.29
-15.19
-11.37
-10.59
-11.17
-10.64
-6.18
4.32
21.34
43.23
66.71
88.03
104.22
113.80
116.86
114.50
108.23
99.55
89.88
80.54
72.63
66.76
62.82
59.90
56.71
52.09
45.53
37.19
27.76
18.01
8.52
-0.42
-8.64
-16.04
-22.57
-28.26
-33.30
-38.03
-42.85
-48.07
-53.82
-59.89
-65.54
-69.51
-70.23
-66.33
-57.32
-44.03
-28.56
-13.58
-1.38
6.89
11.41
13.24
13.62
13.32
12.61
11.49
10.14
9.09
9.03
10.47
13.43
17.40
21.55
25.11
27.57
28.75
28.76
27.83
26.30
24.45
22.57
20.78
19.12
17.45
15.60
13.31
10.28
6.18
0.68
-6.20
-13.87
-21.04
-26.00
-27.21
-24.05
-17.13
-8.13
0.91
8.31
13.28
15.83
16.45
15.62
13.68
10.89
7.60
4.38
1.81
0.25
-0.34
-0.31
-0.13
-0.19
-0.69
-1.71
-3.32
-5.59
-8.57
-12.19
-16.23
-20.42
-24.54
-28.50
-32.23
-35.65
-38.62
-41.01
-42.89
-44.61
-46.70
-49.51
-52.81
-55.59
-56.36
-53.74
-47.10
-37.01
-25.06
-13.29
-3.41
3.68
7.95
9.94
10.29
9.47
7.72
5.31
2.61
0.15
-1.58
-2.26
-1.93
-0.84
0.54
1.70
2.18
1.61
-0.23
-3.27
-7.17
-11.34
-15.12
-18.01
-19.89
-20.99
-21.77
-22.75
-24.35
-26.77
-30.03
-33.84
-37.57
-40.20
-40.51
-37.40
-30.43
-20.08
-7.73
4.77
15.72
24.03
29.40
32.16
32.90
32.23
30.64
28.48
26.05
23.62
21.39
19.45
17.84
16.49
15.27
13.94
12.17
9.67
6.24
1.92
-3.00
-8.15
-13.16
-17.81
-22.03
-25.84
-29.24
-32.24
-34.95
-37.65
-40.72
-44.36
-48.22
-51.25
-51.91
-48.74
-41.06
-29.51
-15.86
-2.45
8.73
16.63
21.31
23.52
24.12
23.67
22.44
20.64
18.68
17.19
16.82
17.93
20.37
23.52
26.51
28.55
29.11
28.09
25.72
22.44
18.78
15.16
11.93
9.23
7.07
5.27
3.49
1.32
-1.64
-5.57
-10.14
-14.36
-16.71
-15.57
-9.90
0.26
13.64
28.13
41.51
52.24
59.79
64.66
67.80
70.06
71.77
72.77
72.69
71.27
68.58
64.95
60.74
56.03
50.61
43.97
35.68
25.61
14.03
1.55
-11.15
-23.46
-34.96
-45.27
-54.02
-60.83
-65.51
-68.31
-69.95
-71.34
-73.09
-75.05
-76.14
-74.77
-69.47
-59.58
-45.50
-28.61
-10.87
5.61
18.94
27.59
30.62
27.93
20.37
9.77
-1.41
-10.74
-16.46
-17.93
-15.68
-11.10
-5.90
-1.54
1.13
2.05
1.76
1.00
0.22
-0.78
-2.87
-7.16
-14.39
-24.50
-36.45
-48.73
-59.76
-68.37
-73.73
-75.12
-71.79
-63.10
-48.98
-30.39
-9.41
11.24
28.92
41.83
49.16
51.03
48.02
41.02
31.14
19.90
9.15
0.78
-3.87
-4.44
-1.64
3.09
8.12
12.19
14.67
15.47
14.81
12.82
9.39
4.19
-3.14
-12.59
-23.65
-35.29
-46.31
-55.60
-62.32
-65.78
-65.22
-59.86
-49.15
-33.43
-14.29
5.47
22.54
34.14
38.98
37.56
31.85
24.42
17.59
12.79
10.49
10.45
12.20
15.23
19.17
23.58
27.84
31.13
32.63
31.76
28.30
22.34
14.16
4.15
-7.11
-18.79
-29.85
-39.43
-47.30
-54.04
-60.63
-67.73
-74.91
-80.51
-82.26
-78.38
-68.40
-53.44
-35.72
-17.68
-1.22
12.61
23.54
31.74
37.49
41.05
42.64
42.54
41.17
39.14
37.23
36.12
36.18
37.18
38.38
38.76
37.54
34.47
29.99
24.93
20.13
16.16
13.10
10.68
8.42
5.91
2.83
-0.98
-5.60
-10.97
-16.75
-22.23
-26.23
-27.42
-24.74
-17.90
-7.72
4.05
15.31
24.33
30.30
33.40
34.35
33.99
32.84
31.10
28.95
26.75
25.02
24.21
24.50
25.62
26.95
27.77
27.45
25.55
21.88
16.50
9.71
2.10
-5.55
-12.45
-18.06
-22.31
-25.60
-28.65
-32.20
-36.66
-41.84
-46.88
-50.32
-50.57
-46.39
-37.42
-24.56
-9.69
4.81
16.85
25.19
29.70
31.04
30.35
28.72
26.97
25.54
24.44
23.41
22.12
20.48
18.77
17.55
17.23
17.72
18.20
17.54
14.84
10.01
3.83
-2.43
-7.67
-11.53
-14.33
-16.79
-19.50
-22.71
-26.40
-30.45
-34.66
-38.62
-41.48
-42.04
-39.08
-32.00
-21.15
-7.90
5.81
18.13
27.87
34.63
38.64
40.36
40.21
38.49
35.54
31.91
28.28
25.27
23.16
21.77
20.60
19.00
16.60
13.31
9.43
5.33
1.34
-2.41
-5.92
-9.25
-12.44
-15.43
-18.17
-20.70
-23.18
-25.88
-29.10
-33.06
-37.67
-42.43
-46.31
-47.91
-45.82
-39.16
-28.04
-13.70
1.76
16.03
27.36
34.92
38.86
39.96
39.11
37.04
34.27
31.20
28.27
25.95
24.53
23.98
23.92
23.76
22.95
21.17
18.37
14.67
10.29
5.47
0.49
-4.26
-8.41
-11.63
-13.91
-15.51
-16.98
-18.92
-21.82
-25.91
-31.01
-36.47
-41.17
-43.62
-42.38
-36.50
-26.10
-12.43
2.36
15.90
26.38
33.00
35.95
36.09
34.35
31.49
27.99
24.27
20.82
18.14
16.67
16.44
17.11
17.99
18.26
17.34
14.96
11.25
6.63
1.73
-2.79
-6.45
-9.05
-10.82
-12.29
-14.14
-16.92
-20.88
-25.97
-31.84
-37.88
-43.12
-46.28
-45.92
-40.93
-31.09
-17.40
-2.03
12.42
23.75
30.89
34.01
34.14
32.47
29.83
26.64
23.09
19.52
16.53
14.82
14.79
16.29
18.60
20.76
21.92
21.59
19.74
16.56
12.32
7.25
1.61
-4.33
-10.14
-15.44
-19.96
-23.70
-27.03
-30.53
-34.82
-40.13
-46.03
-51.29
-54.06
-52.51
-45.56
-33.43
-17.74
-1.01
14.18
25.98
33.72
37.75
39.01
38.52
37.04
35.09
33.00
31.12
29.78
29.26
29.60
30.56
31.58
31.94
31.05
28.57
24.64
19.80
14.80
10.26
6.44
3.21
0.16
-3.10
-6.78
-10.84
-15.24
-20.16
-25.94
-32.83
-40.47
-47.65
-52.53
-53.30
-49.10
-40.55
-29.59
-18.71
-9.89
-3.97
-0.54
1.50
3.14
4.85
6.50
7.77
8.56
9.19
10.23
12.07
14.71
17.62
20.02
21.29
21.26
20.20
18.64
16.87
14.75
11.76
7.31
1.15
-6.36
-14.43
-22.18
-29.07
-35.10
-40.64
-46.00
-51.01
-54.83
-56.21
-54.00
-47.69
-37.70
-25.26
-12.04
0.40
10.96
19.17
24.95
28.49
30.03
29.80
28.19
25.74
23.14
21.06
19.94
19.80
20.34
21.01
21.29
20.87
19.73
18.01
15.86
13.28
10.09
6.11
1.19
-4.54
-10.74
-17.05
-23.27
-29.49
-35.98
-42.89
-49.84
-55.74
-58.99
-58.00
-51.97
-41.29
-27.59
-13.23
-0.54
8.85
14.35
16.37
15.92
14.36
12.99
12.83
14.40
17.69
22.14
27.05
31.84
36.35
40.90
46.01
52.02
58.85
65.81
71.74
75.25
75.07
70.43
61.24
48.27
32.88
16.54
0.35
-15.23
-30.33
-45.15
-59.44
-72.21
-81.96
-87.12
-86.81
-81.21
-71.63
-60.07
-48.68
-39.09
-32.08
-27.44
-24.27
-21.42
-17.99
-13.62
-8.48
-3.00
2.47
7.93
13.61
19.76
26.30
32.67
38.05
41.69
43.39
43.66
43.58
44.44
47.30
52.71
60.54
69.92
79.25
86.30
88.59
84.03
71.77
52.80
29.99
7.39
-11.07
-22.83
-27.40
-26.24
-22.04
-17.68
-15.53
-17.00
-22.50
-31.47
-42.67
-54.38
-64.82
-72.57
-76.82
-77.52
-75.24
-70.86
-65.31
-59.34
-53.49
-48.05
-43.09
-38.62
-34.56
-30.86
-27.53
-24.55
-21.95
-19.70
-17.83
-16.46
-15.74
-15.94
-17.32
-19.96
-23.60
-27.49
-30.39
-30.87
-27.72
-20.43
-9.53
3.52
16.78
28.37
37.04
42.35
44.57
44.39
42.53
39.59
36.01
32.10
28.16
24.51
21.40
18.98
17.21
15.86
14.50
12.70
10.05
6.31
1.43
-4.44
-10.96
-17.67
-24.05
-29.62
-34.06
-37.26
-39.40
-40.93
-42.47
-44.57
-47.34
-50.08
-51.29
-49.00
-41.61
-28.71
-11.51
7.47
25.28
39.66
49.77
56.15
60.13
62.99
65.40
67.42
68.94
70.09
71.37
73.53
77.21
82.66
89.58
97.19
104.36
109.87
112.60
111.84
107.42
99.83
90.13
79.63
69.50
60.43
52.34
44.41
35.42
24.14
9.87
-7.32
-26.45
-45.80
-63.25
-76.62
-84.11
-84.71
-78.55
-66.97
-52.33
-37.47
-25.02
-16.68
-12.93
-13.09
-15.75
-19.38
-22.74
-25.03
-25.92
-25.36
-23.56
-20.86
-17.68
-14.46
-11.65
-9.65
-8.77
-9.23
-11.09
-14.19
-18.12
-22.30
-26.11
-29.05
-30.97
-32.08
-32.91
-34.09
-36.23
-39.72
-44.69
-50.83
-57.26
-62.45
-64.50
-61.76
-53.52
-40.54
-25.02
-9.80
2.65
11.06
15.51
16.96
16.44
14.52
11.36
7.15
2.46
-1.67
-4.19
-4.53
-2.96
-0.48
1.70
2.60
1.81
-0.55
-4.00
-8.00
-12.06
-15.79
-18.91
-21.31
-23.05
-24.41
-25.87
-27.94
-31.11
-35.64
-41.46
-48.08
-54.39
-58.84
-59.74
-55.70
-46.27
-32.24
-15.49
1.48
16.35
27.61
34.83
38.50
39.58
39.12
37.90
36.52
35.43
34.94
35.30
36.48
38.16
39.79
40.72
40.43
38.69
35.58
31.38
26.47
21.25
16.09
11.36
7.32
4.05
1.38
-1.10
-3.98
-7.86
-13.20
-20.15
-28.36
-36.81
-43.91
-47.74
-46.68
-39.99
-28.29
-13.46
1.93
15.48
25.68
32.20
35.60
36.83
36.69
35.66
33.99
31.91
29.75
27.98
26.95
26.77
27.20
27.78
27.97
27.35
25.71
23.03
19.37
14.79
9.36
3.21
-3.36
-9.88
-15.76
-20.52
-23.95
-26.29
-28.23
-30.72
-34.51
-39.76
-45.74
-50.85
-53.07
-50.69
-42.98
-30.61
-15.48
-0.07
13.35
23.43
29.85
33.09
33.93
33.12
31.23
28.76
26.30
24.46
23.70
24.08
25.20
26.37
26.89
26.36
24.73
22.19
18.95
15.14
10.79
6.02
1.05
-3.78
-8.17
-12.07
-15.65
-19.31
-23.51
-28.57
-34.62
-41.44
-48.38
-54.23
-57.42
-56.36
-50.02
-38.49
-23.25
-6.82
8.10
19.53
26.84
30.69
32.42
33.27
33.82
34.06
33.73
32.82
31.73
31.02
31.08
31.78
32.45
32.17
30.25
26.44
21.02
14.61
7.83
1.18
-5.09
-10.91
-16.27
-21.20
-25.73
-29.96
-34.04
-38.18
-42.49
-46.75
-50.23
-51.70
-49.72
-43.23
-32.07
-17.24
-0.74
15.06
28.12
37.28
42.31
43.72
42.27
38.72
33.78
28.21
22.91
18.84
16.72
16.76
18.45
20.69
22.16
21.78
19.12
14.48
8.70
2.84
-2.35
-6.55
-9.99
-13.20
-16.82
-21.37
-27.09
-33.82
-40.90
-47.18
-51.02
-50.83
-45.52
-35.16
-21.03
-5.43
9.17
20.79
28.51
32.41
33.13
31.35
27.58
22.21
15.90
9.65
4.72
2.08
1.98
3.66
5.61
6.19
4.31
-0.06
-5.98
-11.97
-16.69
-19.49
-20.56
-20.79
-21.27
-22.99
-26.50
-31.88
-38.58
-45.47
-50.76
-52.42
-48.67
-38.70
-23.11
-3.97
15.69
32.77
45.00
51.62
53.34
51.91
49.23
46.65
44.68
43.13
41.63
40.02
38.53
37.48
36.84
35.94
33.73
29.25
22.28
13.54
4.37
-3.90
-10.51
-15.48
-19.36
-22.82
-26.42
-30.53
-35.36
-40.95
-46.85
-51.89
-54.30
-52.25
-44.71
-32.06
-16.17
0.25
14.68
25.60
32.73
36.64
38.06
37.48
35.08
31.14
26.30
21.65
18.35
17.18
18.17
20.51
22.81
23.60
21.81
17.13
10.14
2.03
-5.82
-12.35
-17.12
-20.39
-22.81
-25.16
-28.07
-31.99
-37.16
-43.53
-50.58
-57.09
-61.16
-60.71
-54.21
-41.41
-23.77
-3.98
14.86
30.26
40.99
47.16
49.69
49.74
48.28
45.97
43.33
40.87
39.06
38.18
38.14
38.55
38.84
38.52
37.36
35.33
32.53
29.01
24.76
19.83
14.37
8.79
3.56
-0.88
-4.35
-7.02
-9.35
-12.04
-15.81
-21.28
-28.59
-37.20
-45.67
-51.88
-53.54
-49.07
-38.27
-22.62
-4.77
12.26
26.10
35.56
40.68
42.28
41.42
39.06
36.01
32.91
30.38
28.87
28.50
28.99
29.68
29.82
28.84
26.56
23.23
19.37
15.49
11.91
8.55
5.09
1.13
-3.54
-8.74
-13.88
-18.27
-21.39
-23.25
-24.45
-26.00
-28.91
-33.78
-40.43
-47.72
-53.76
-56.37
-53.72
-44.95
-30.66
-12.73
6.15
23.36
37.14
46.94
53.23
56.95
58.95
59.71
59.49
58.68
58.05
58.58
61.15
65.95
72.39
79.21
85.04
89.03
91.18
92.38
93.98
97.22
102.74
110.40
119.37
128.58
137.17
144.86
152.10
159.90
169.62
182.53
199.48
220.50
244.63
269.81
293.20
311.73
322.85
325.16
318.73
304.91
285.78
263.49
239.81
215.97
192.88
171.22
151.52
133.96
118.16
103.09
87.40
69.94
50.22
28.73
6.80
-14.05
-32.79
-49.40
-64.98
-81.26
-99.79
-121.20
-144.82
-169.02
-191.89
-212.24
-230.07
-246.62
-263.75
-283.24
-306.41
-333.83
-365.30
-399.43
-433.19
-461.98
-480.82
-486.35
-478.75
-462.20
-443.36
-428.22
-419.11
-413.69
-406.26
-390.99
-364.75
-328.28
-285.11
-239.44
-194.21
-150.61
-108.81
-68.95
-31.65
2.32
32.59
59.59
84.32
107.71
129.95
150.33
167.40
179.68
186.26
187.16
183.49
177.18
170.45
165.29
162.84
163.11
165.07
167.04
167.47
165.61
161.73
157.05
153.02
150.62
149.82
149.48
147.52
141.46
129.07
109.00
81.31
47.67
11.22
-24.18
-54.83
-78.19
-93.34
-100.87
-102.34
-99.59
-94.35
-88.12
-82.25
-77.86
-75.68
-75.70
-77.11
-78.58
-78.84
-77.18
-73.70
-69.14
-64.60
-61.03
-59.03
-58.73
-59.85
-61.84
-64.06
-66.03
-67.50
-68.54
-69.29
-69.82
-69.93
-69.29
-67.76
-65.73
-64.22
-64.59
-67.91
-74.30
-82.58
-90.51
-95.44
-95.43
-90.16
-81.36
-72.20
-66.00
-64.57
-67.40
-71.78
-74.29
-72.67
-67.13
-60.39
-56.45
-58.83
-69.15
-86.80
-109.40
-133.41
-154.54
-168.05
-169.76
-157.91
-135.11
-109.36
-92.51
-96.36
-127.78
-185.11
-257.97
-331.06
-390.16
-427.32
-442.75
-442.63
-434.56
-423.28
-409.06
-389.22
-361.21
-325.22
-284.47
-243.47
-205.47
-170.89
-137.68
-103.39
-67.27
-31.12
1.55
27.38
45.01
55.70
62.69
69.72
79.47
92.58
107.91
123.37
137.17
148.77
159.11
170.23
184.31
202.55
224.51
248.01
269.71
286.11
294.68
294.53
286.66
273.44
257.79
242.18
227.96
215.24
203.23
190.90
177.60
163.30
148.38
133.21
117.80
101.83
85.17
68.47
53.61
43.29
40.10
45.35
58.37
76.58
96.31
114.06
127.51
135.87
139.56
139.54
136.71
131.67
124.93
117.14
109.22
102.13
96.56
92.62
89.89
87.72
85.59
83.30
80.94
78.59
76.11
73.15
69.26
64.23
58.22
51.74
45.40
39.71
34.90
30.86
27.26
23.55
19.24
14.14
8.68
4.03
2.00
4.44
12.49
25.93
43.07
61.20
77.59
90.31
98.73
103.37
105.29
105.47
104.56
102.91
100.94
99.24
98.64
99.86
103.24
108.55
115.06
121.80
127.92
133.00
137.16
140.92
144.96
149.70
155.16
160.88
166.14
170.20
172.57
172.99
171.26
167.00
159.56
148.39
133.58
116.23
98.52
82.88
71.15
63.59
58.81
54.34
47.73
37.49
23.52
6.69
-11.71
-30.64
-49.43
-67.57
-84.47
-99.34
-111.45
-120.45
-126.66
-131.07
-135.15
-140.47
-148.48
-160.27
-176.45
-197.10
-221.68
-248.98
-277.21
-304.18
-327.69
-345.93
-357.89
-363.55
-363.83
-360.19
-354.04
-346.08
-335.95
-322.21
-302.88
-276.21
-241.53
-199.67
-152.94
-104.53
-57.70
-15.07
21.83
52.38
76.63
94.89
107.68
115.70
120.01
122.00
123.13
124.64
127.23
130.87
134.91
138.27
139.81
138.60
134.20
126.72
116.85
105.66
94.22
83.27
73.06
63.33
53.66
43.71
33.30
22.45
11.19
-0.28
-11.43
-21.13
-27.62
-29.07
-24.21
-13.19
2.34
19.62
35.74
48.72
57.90
63.80
67.38
69.37
70.00
69.18
67.00
64.05
61.30
59.62
59.28
59.76
60.02
59.12
56.72
53.26
49.55
46.28
43.56
40.83
37.26
32.17
25.48
17.71
9.71
2.32
-3.93
-8.98
-13.21
-17.25
-21.92
-27.96
-35.76
-45.01
-54.46
-61.98
-65.06
-61.69
-51.19
-34.57
-14.36
6.29
24.69
39.29
49.88
57.08
61.60
63.81
63.67
61.19
56.88
51.85
47.53
45.03
44.64
45.67
46.85
46.94
45.26
41.91
37.55
33.00
28.82
25.17
21.81
18.38
14.51
9.98
4.79
-0.91
-6.82
-12.57
-17.81
-22.31
-26.09
-29.41
-32.69
-36.39
-40.95
-46.65
-53.54
-61.19
-68.60
-74.06
-75.59
-71.44
-60.89
-44.67
-24.86
-4.37
14.04
28.58
38.76
45.07
48.46
49.73
49.36
47.65
45.05
42.33
40.45
40.21
41.84
44.83
48.09
50.39
50.83
49.22
46.06
42.24
38.65
35.69
33.12
30.20
26.11
20.41
13.29
5.59
-1.63
-7.56
-12.00
-15.38
-18.55
-22.32
-27.20
-33.39
-40.76
-48.92
-57.08
-63.91
-67.60
-66.30
-58.88
-45.55
-28.05
-9.14
8.33
22.42
32.53
39.15
43.19
45.37
45.88
44.73
42.11
38.76
35.79
34.27
34.61
36.37
38.36
39.22
38.02
34.61
29.61
24.05
18.86
14.59
11.25
8.44
5.60
2.28
-1.72
-6.25
-10.92
-15.22
-18.74
-21.40
-23.47
-25.54
-28.24
-32.04
-37.18
-43.56
-50.77
-57.91
-63.57
-65.83
-62.74
-53.02
-36.68
-15.31
8.37
31.38
51.46
67.66
80.25
90.14
98.19
104.83
110.12
114.07
117.10
120.08
124.09
129.93
137.71
146.64
155.30
162.12
165.90
166.26
163.52
158.42
151.67
143.54
133.78
121.79
106.91
88.77
67.42
43.41
17.65
-8.70
-34.49
-58.78
-80.98
-101.01
-119.22
-136.24
-152.86
-169.64
-186.68
-203.32
-218.10
-228.99
-234.05
-232.19
-223.71
-210.38
-194.88
-179.85
-167.09
-157.11
-149.34
-142.76
-136.48
-130.08
-123.50
-116.73
-109.54
-101.38
-91.69
-80.25
-67.51
-54.60
-42.98
-33.98
-28.24
-25.56
-25.04
-25.48
-25.93
-25.84
-25.18
-24.18
-23.08
-21.98
-20.85
-19.58
-18.12
-16.61
-15.33
-14.74
-15.30
-17.42
-21.31
-26.96
-34.06
-41.96
-49.55
-55.23
-57.15
-53.60
-43.74
-28.02
-8.28
12.79
32.48
48.79
60.88
68.81
73.23
74.88
74.52
72.94
71.17
70.35
71.51
75.19
81.14
88.47
95.82
101.87
105.73
107.21
106.70
104.95
102.65
100.04
96.94
92.91
87.75
81.75
75.76
70.77
67.49
66.02
65.82
66.02
65.79
64.65
62.63
60.38
59.17
60.80
67.26
79.98
99.10
122.87
147.85
169.68
184.39
189.47
184.30
169.90
148.15
121.10
90.60
58.39
26.31
-3.62
-29.53
-50.31
-65.94
-77.69
-87.63
-97.85
-109.72
-123.43
-138.10
-152.34
-164.99
-175.57
-184.53
-192.92
-202.05
-212.92
-225.91
-240.64
-256.03
-270.52
-282.38
-290.05
-292.48
-289.27
-280.78
-267.87
-251.53
-232.41
-210.57
-185.64
-157.22
-125.53
-91.76
-57.95
-26.47
0.73
22.63
39.27
51.36
59.71
64.98
67.59
68.01
66.97
65.43
64.36
64.31
65.19
66.33
66.69
65.41
62.03
56.75
50.20
43.26
36.63
30.63
25.09
19.57
13.67
7.32
0.87
-5.10
-10.12
-14.11
-17.52
-21.18
-25.88
-32.07
-39.43
-46.79
-52.30
-53.86
-49.79
-39.51
-23.89
-5.10
14.07
31.10
44.51
53.99
60.11
63.64
65.22
65.20
63.95
62.11
60.53
60.08
61.19
63.70
66.88
69.77
71.56
71.86
70.74
68.60
65.90
62.86
59.40
55.15
49.82
43.44
36.55
30.03
24.71
20.91
18.18
15.45
11.39
5.01
-3.98
-14.87
-26.09
-35.46
-40.76
-40.37
-33.83
-22.20
-7.76
6.59
18.30
25.82
28.92
28.31
25.11
20.39
15.03
9.79
5.40
2.56
1.66
2.60
4.75
7.17
8.96
9.58
8.95
7.33
5.09
2.43
-0.60
-4.12
-8.21
-12.71
-17.27
-21.46
-24.96
-27.74
-30.17
-32.83
-36.38
-41.21
-47.23
-53.67
-59.06
-61.51
-59.19
-51.00
-37.08
-19.00
0.63
18.92
33.59
43.55
48.94
50.75
50.23
48.39
45.87
43.08
40.41
38.26
36.97
36.60
36.83
37.04
36.58
35.04
32.37
28.78
24.49
19.58
14.00
7.71
0.87
-6.07
-12.48
-17.84
-21.96
-25.08
-27.78
-30.81
-34.84
-40.20
-46.62
-53.03
-57.64
-58.37
-53.63
-43.03
-27.76
-10.27
6.60
20.66
30.87
37.39
41.05
42.63
42.62
41.21
38.64
35.44
32.41
30.29
29.48
29.86
30.90
31.91
32.29
31.64
29.77
26.65
22.36
17.09
11.19
5.07
-0.86
-6.32
-11.25
-15.78
-20.14
-24.66
-29.66
-35.50
-42.33
-49.93
-57.37
-62.95
-64.62
-60.64
-50.39
-34.82
-16.33
2.09
17.82
29.38
36.68
40.57
42.18
42.45
41.85
40.64
39.04
37.44
36.29
35.91
36.27
37.01
37.53
37.23
35.70
32.74
28.43
22.89
16.37
9.13
1.52
-6.02
-13.01
-19.03
-23.81
-27.42
-30.30
-33.20
-36.95
-42.06
-48.27
-54.34
-58.24
-57.72
-51.12
-38.12
-20.03
0.61
20.78
37.88
50.40
58.00
61.27
61.27
59.10
55.72
51.95
48.41
45.61
43.86
43.20
43.34
43.76
43.82
43.04
41.18
38.38
35.02
31.55
28.35
25.64
23.48
21.88
20.77
20.11
19.70
19.24
18.30
16.38
13.19
8.95
4.65
2.13
3.73
11.53
26.52
48.07
73.98
101.17
126.76
148.90
167.10
181.78
193.60
202.73
208.66
210.36
206.80
197.35
182.07
161.71
137.51
110.94
83.39
55.81
28.57
1.58
-25.48
-52.77
-80.12
-107.06
-133.09
-157.85
-181.25
-203.21
-223.64
-242.41
-259.70
-276.10
-292.60
-310.10
-328.69
-347.04
-362.28
-370.49
-367.75
-351.38
-320.92
-278.38
-227.89
-174.62
-123.49
-78.12
-40.29
-10.14
13.25
31.07
44.35
53.93
60.62
65.42
69.47
73.70
78.54
83.62
88.01
90.60
90.62
87.97
83.29
77.55
71.65
66.04
60.58
54.82
48.30
40.91
33.00
25.25
18.34
12.60
7.93
3.77
-0.66
-6.12
-13.10
-21.73
-31.52
-41.30
-49.20
-53.06
-51.08
-42.56
-28.34
-10.69
7.49
23.63
36.26
45.19
51.07
54.73
56.62
56.86
55.47
52.86
49.85
47.40
46.14
46.03
46.34
46.08
44.43
41.14
36.61
31.62
26.98
23.14
20.09
17.47
14.77
11.61
7.94
4.04
0.37
-2.62
-4.72
-6.16
-7.52
-9.67
-13.51
-19.63
-27.97
-37.62
-46.72
-52.95
-54.09
-48.92
-37.66
-22.07
-4.89
11.07
23.79
32.45
37.25
38.97
38.40
36.21
32.95
29.30
26.07
24.07
23.70
24.79
26.56
27.95
28.01
26.35
23.16
19.09
14.88
10.99
7.42
3.82
-0.25
-4.97
-10.10
-15.04
-19.09
-21.84
-23.34
-24.10
-24.97
-26.83
-30.44
-36.13
-43.56
-51.59
-58.23
-61.20
-58.68
-50.09
-36.52
-20.44
-4.79
8.08
16.99
22.06
24.19
24.42
23.49
21.87
19.89
18.04
16.96
17.23
19.15
22.46
26.36
29.66
31.25
30.39
27.08
22.00
16.13
10.33
4.89
-0.36
-5.85
-11.75
-17.72
-22.98
-26.70
-28.44
-28.38
-27.37
-26.58
-27.17
-30.01
-35.43
-43.00
-51.48
-58.89
-62.89
-61.52
-53.94
-40.88
-24.45
-7.46
7.60
19.29
27.40
32.60
35.71
37.23
37.22
35.58
32.49
28.62
25.01
22.62
21.96
22.83
24.47
25.93
26.45
25.68
23.65
20.54
16.51
11.61
5.88
-0.45
-6.86
-12.71
-17.38
-20.63
-22.61
-23.94
-25.40
-27.81
-31.80
-37.57
-44.70
-52.00
-57.64
-59.54
-56.13
-46.97
-33.07
-16.70
-0.55
13.07
22.98
29.18
32.48
33.96
34.42
34.29
33.75
33.02
32.41
32.32
32.95
34.16
35.45
36.18
35.81
34.02
30.76
26.22
20.68
14.51
8.14
2.01
-3.49
-8.20
-12.19
-15.77
-19.33
-23.23
-27.78
-33.20
-39.56
-46.49
-52.93
-57.14
-57.07
-51.18
-39.17
-22.45
-3.77
13.66
27.24
35.75
39.49
39.75
38.03
35.48
32.74
30.10
27.83
26.25
25.63
26.03
27.11
28.25
28.72
28.02
25.98
22.74
18.64
13.95
8.89
3.61
-1.75
-7.03
-12.04
-16.63
-20.75
-24.42
-27.83
-31.28
-35.29
-40.32
-46.50
-53.23
-58.98
-61.64
-59.19
-50.67
-36.71
-19.52
-2.07
12.95
24.08
31.23
35.24
37.06
37.37
36.43
34.43
31.80
29.28
27.56
26.97
27.31
27.94
28.16
27.47
25.74
23.07
19.65
15.62
11.09
6.19
1.12
-3.87
-8.56
-12.81
-16.53
-19.79
-22.80
-25.97
-29.82
-34.82
-41.06
-47.96
-54.17
-57.78
-56.85
-50.23
-38.01
-21.78
-4.12
12.11
24.75
32.76
36.39
36.71
35.06
32.54
29.79
27.14
24.78
22.97
21.98
21.98
22.79
23.81
24.20
23.15
20.21
15.49
9.62
3.49
-2.08
-6.62
-10.10
-12.88
-15.46
-18.29
-21.63
-25.56
-30.05
-35.07
-40.46
-45.77
-50.07
-51.92
-49.81
-42.73
-30.80
-15.48
0.73
15.20
25.98
32.42
35.04
34.95
33.24
30.59
27.27
23.48
19.69
16.60
14.95
15.10
16.76
19.05
20.72
20.71
18.42
13.97
8.09
1.81
-3.88
-8.39
-11.69
-14.19
-16.52
-19.21
-22.53
-26.52
-31.13
-36.27
-41.69
-46.65
-49.81
-49.43
-44.00
-33.01
-17.44
0.28
17.14
30.54
39.16
43.15
43.67
42.11
39.52
36.40
32.94
29.43
26.35
24.31
23.66
24.21
25.23
25.75
24.96
22.52
18.66
13.90
8.87
4.02
-0.46
-4.53
-8.20
-11.38
-13.96
-15.81
-17.02
-17.93
-19.06
-20.85
-23.12
-24.76
-23.76
-17.75
-4.96
14.94
40.46
68.73
96.39
120.64
139.83
153.48
161.86
165.45
164.76
160.35
152.97
143.67
133.57
123.45
113.45
103.00
91.03
76.39
58.30
36.53
11.43
-16.18
-45.22
-74.37
-102.14
-126.89
-147.05
-161.42
-169.58
-172.14
-170.63
-167.13
-163.68
-161.63
-161.36
-162.19
-162.62
-160.84
-155.23
-144.81
-129.53
-110.28
-88.67
-66.62
-45.86
-27.59
-12.35
-0.12
9.38
16.43
21.24
24.01
25.08
25.09
24.77
24.77
25.22
25.65
25.13
22.76
18.11
11.53
4.08
-2.96
-8.54
-12.31
-14.58
-16.09
-17.57
-19.57
-22.40
-26.33
-31.64
-38.39
-46.10
-53.40
-58.13
-58.03
-51.63
-38.94
-21.58
-2.21
16.44
32.45
44.97
54.15
60.54
64.72
67.05
67.76
67.15
65.74
64.16
62.96
62.32
61.88
60.70
57.68
51.98
43.54
33.16
22.31
12.57
5.04
-0.03
-3.20
-5.47
-7.86
-11.20
-16.03
-22.71
-31.48
-42.24
-54.31
-66.22
-75.81
-80.75
-79.28
-70.88
-56.62
-38.77
-20.10
-3.02
10.99
21.52
28.90
33.74
36.70
38.41
39.58
40.97
43.25
46.60
50.56
54.02
55.70
54.66
50.69
44.36
36.72
28.90
21.73
15.63
10.67
6.66
3.12
-0.64
-5.54
-12.54
-22.30
-34.93
-49.76
-65.34
-79.65
-90.43
-95.73
-94.33
-86.14
-72.30
-54.93
-36.66
-19.92
-6.44
3.01
8.55
10.95
11.23
10.50
9.79
10.03
11.96
16.07
22.37
30.31
38.73
46.00
50.49
51.05
47.40
40.30
31.21
21.83
13.43
6.63
1.26
-3.28
-7.80
-13.02
-19.45
-27.17
-35.58
-43.29
-48.25
-48.29
-42.00
-29.33
-11.84
7.82
26.85
43.14
55.83
65.15
72.05
77.62
82.81
88.35
94.72
102.03
109.88
117.15
122.03
122.52
116.94
104.69
86.48
64.22
40.37
17.15
-4.00
-22.71
-39.47
-55.26
-71.04
-87.50
-104.77
-122.31
-138.75
-151.99
-159.60
-159.66
-151.61
-136.79
-118.20
-99.55
-83.93
-72.86
-66.09
-62.20
-59.58
-57.20
-54.73
-52.14
-49.24
-45.43
-40.04
-32.86
-24.47
-16.13
-9.32
-5.05
-3.43
-3.73
-4.75
-5.38
-4.97
-3.54
-1.59
0.14
0.85
-0.00
-2.63
-6.71
-11.36
-15.10
-16.26
-13.36
-5.82
5.83
19.95
34.36
47.05
56.80
63.29
66.88
68.10
67.34
64.79
60.74
55.81
50.94
47.16
45.12
44.68
45.02
44.86
43.14
39.44
34.10
28.08
22.47
17.98
14.65
11.91
8.86
4.58
-1.44
-9.11
-17.72
-25.94
-32.10
-34.53
-32.09
-24.59
-13.01
0.77
14.50
26.17
34.55
39.24
40.52
39.06
35.63
30.96
25.81
20.88
16.87
14.24
13.09
13.04
13.33
13.03
11.44
8.36
4.21
-0.23
-4.15
-7.11
-9.24
-11.11
-13.47
-16.92
-21.75
-27.82
-34.45
-40.48
-44.35
-44.47
-39.78
-30.27
-17.10
-2.35
11.72
23.36
31.77
36.95
39.36
39.42
37.37
33.47
28.29
22.89
18.57
16.43
16.80
19.03
21.66
23.12
22.36
19.29
14.69
9.74
5.38
1.94
-0.95
-4.03
-7.95
-13.04
-19.22
-26.15
-33.26
-39.77
-44.58
-46.39
-43.98
-36.74
-25.10
-10.60
4.44
17.78
27.87
34.24
37.35
38.14
37.40
35.62
32.96
29.65
26.18
23.32
21.84
22.07
23.61
25.39
26.04
24.50
20.44
14.37
7.49
1.02
-4.20
-8.00
-10.83
-13.46
-16.66
-20.96
-26.56
-33.31
-40.64
-47.45
-52.25
-53.38
-49.57
-40.60
-27.46
-12.30
2.41
14.59
23.20
28.29
30.65
31.18
30.51
28.94
26.62
23.85
21.12
18.99
17.82
17.61
17.98
18.33
18.10
16.93
14.69
11.45
7.45
3.00
-1.55
-5.85
-9.70
-13.10
-16.25
-19.54
-23.43
-28.26
-34.05
-40.36
-46.12
-49.86
-50.00
-45.52
-36.42
-23.79
-9.62
3.96
15.30
23.59
28.86
31.57
32.22
31.14
28.62
25.04
21.09
17.61
15.32
14.51
14.91
15.76
16.14
15.29
12.86
8.95
4.04
-1.21
-6.22
-10.63
-14.30
-17.38
-20.13
-22.90
-26.06
-29.92
-34.66
-40.12
-45.65
-49.99
-51.58
-48.95
-41.40
-29.31
-14.23
1.64
16.11
27.65
35.62
40.13
41.68
40.77
37.82
33.29
27.93
22.80
19.15
17.89
19.20
22.28
25.58
27.37
26.39
22.37
16.08
8.96
2.46
-2.54
-5.92
-8.25
-10.32
-12.86
-16.23
-20.54
-25.69
-31.39
-37.08
-41.74
-43.97
-42.34
-35.97
-25.10
-11.27
3.14
15.75
25.01
30.55
33.03
33.42
32.49
30.50
27.46
23.49
19.11
15.15
12.36
11.08
11.02
11.46
11.51
10.53
8.25
4.84
0.78
-3.32
-7.00
-10.01
-12.40
-14.39
-16.33
-18.56
-21.43
-25.30
-30.36
-36.44
-42.69
-47.60
-49.31
-46.22
-37.78
-24.82
-9.49
5.56
18.05
26.68
31.43
33.10
32.73
31.15
28.78
25.89
22.82
20.09
18.29
17.77
18.40
19.59
20.48
20.29
18.62
15.54
11.46
6.93
2.40
-1.87
-5.77
-9.33
-12.63
-15.82
-19.10
-22.71
-26.90
-31.92
-37.79
-44.15
-50.09
-54.17
-54.75
-50.55
-41.24
-27.76
-12.15
3.11
15.85
24.93
30.30
32.71
33.15
32.32
30.58
28.09
25.08
22.02
19.49
17.95
17.51
17.86
18.38
18.36
17.21
14.67
10.79
6.02
0.97
-3.74
-7.72
-10.90
-13.53
-16.07
-18.91
-22.30
-26.33
-30.95
-35.95
-40.83
-44.61
-45.94
-43.40
-36.14
-24.47
-9.91
5.18
18.44
28.32
34.45
37.44
38.27
37.75
36.24
33.85
30.77
27.51
24.88
23.53
23.69
24.90
26.25
26.75
25.79
23.37
19.95
16.23
12.77
9.85
7.46
5.45
3.70
2.19
0.90
-0.31
-1.69
-3.56
-5.90
-8.03
-8.52
-5.54
2.42
15.86
33.79
53.92
73.41
89.82
101.80
109.19
112.52
112.43
109.29
103.31
94.91
84.98
74.78
65.47
57.61
50.87
44.24
36.53
26.89
15.11
1.56
-13.18
-28.65
-44.71
-61.31
-78.31
-95.23
-111.29
-125.77
-138.33
-149.25
-159.21
-168.82
-177.90
-185.19
-188.55
-185.73
-175.34
-157.56
-134.22
-108.18
-82.40
-58.99
-38.86
-21.91
-7.64
4.24
13.53
19.82
22.94
23.48
22.77
22.49
23.90
27.37
32.23
37.11
40.68
42.19
41.71
39.95
37.76
35.70
33.79
31.59
28.47
23.91
17.71
9.92
0.66
-9.91
-21.51
-33.44
-44.34
-52.31
-55.47
-52.66
-44.06
-31.33
-17.04
-3.81
6.57
13.52
17.45
19.24
19.69
19.18
17.84
15.78
13.40
11.36
10.33
10.65
12.05
13.72
14.57
13.70
10.75
6.07
0.56
-4.75
-9.09
-12.21
-14.42
-16.36
-18.70
-21.93
-26.27
-31.69
-37.91
-44.26
-49.55
-52.13
-50.30
-42.94
-30.23
-13.77
3.84
19.92
32.56
41.10
45.90
47.80
47.58
45.72
42.57
38.65
34.71
31.57
29.83
29.61
30.48
31.61
32.02
30.87
27.69
22.55
16.10
9.35
3.31
-1.40
-4.81
-7.54
-10.52
-14.50
-19.85
-26.39
-33.51
-40.15
-44.98
-46.50
-43.40
-35.07
-22.10
-6.26
9.84
23.61
33.40
38.84
40.70
40.27
38.59
36.18
33.12
29.42
25.44
21.81
19.26
18.16
18.25
18.71
18.50
16.82
13.47
8.85
3.73
-1.09
-5.16
-8.40
-11.14
-13.76
-16.62
-19.92
-23.79
-28.35
-33.63
-39.37
-44.74
-48.36
-48.53
-43.96
-34.33
-20.71
-5.22
9.67
21.93
30.61
35.80
38.22
38.60
37.44
34.96
31.42
27.34
23.49
20.65
19.22
19.02
19.38
19.39
18.28
15.72
11.85
7.20
2.41
-1.99
-5.69
-8.71
-11.28
-13.73
-16.40
-19.60
-23.60
-28.63
-34.68
-41.28
-47.23
-50.75
-49.95
-43.65
-31.96
-16.49
0.14
15.24
26.93
34.62
38.76
40.33
40.15
38.66
36.03
32.53
28.70
25.35
23.25
22.77
23.68
25.19
26.22
25.82
23.51
19.48
14.43
9.29
4.86
1.46
-1.09
-3.29
-5.73
-8.84
-12.84
-17.78
-23.60
-30.06
-36.50
-41.73
-44.19
-42.44
-35.82
-24.89
-11.49
1.94
13.11
20.73
24.69
25.75
24.95
23.02
20.25
16.72
12.67
8.69
5.62
4.11
4.27
5.50
6.68
6.65
4.63
0.55
-4.98
-10.95
-16.33
-20.35
-22.72
-23.64
-23.64
-23.39
-23.47
-24.27
-25.91
-28.22
-30.71
-32.49
-32.24
-28.52
-20.19
-7.03
10.05
29.14
48.01
64.89
78.95
90.34
99.61
107.12
112.68
115.67
115.53
112.26
106.63
99.90
93.46
88.23
84.48
81.77
79.22
75.83
70.84
63.84
54.70
43.45
30.15
15.20
-0.55
-15.61
-28.23
-37.14
-42.15
-44.42
-45.92
-48.25
-51.63
-54.58
-54.58
-49.53
-39.16
-25.43
-11.97
-2.60
0.19
-4.05
-13.94
-27.19
-41.69
-56.11
-69.81
-82.30
-92.70
-99.71
-102.05
-99.18
-91.65
-81.01
-69.18
-57.75
-47.47
-38.41
-30.40
-23.52
-18.30
-15.46
-15.46
-18.18
-22.80
-28.26
-33.70
-38.92
-44.32
-50.53
-57.76
-65.37
-71.83
-75.17
-73.63
-66.50
-54.38
-39.08
-22.95
-8.13
4.04
13.11
19.27
22.91
24.26
23.45
20.66
16.39
11.60
7.47
4.98
4.52
5.68
7.37
8.31
7.49
4.58
-0.06
-5.62
-11.18
-16.08
-20.08
-23.26
-25.83
-27.92
-29.55
-30.72
-31.56
-32.40
-33.54
-34.97
-36.10
-35.87
-33.14
-27.33
-18.82
-8.86
0.79
8.54
13.34
14.70
12.39
6.20
-3.88
-17.11
-31.60
-44.21
-51.37
-50.24
-39.90
-21.77
0.83
23.94
44.25
60.04
71.26
79.08
84.93
89.72
93.38
94.80
92.15
83.46
67.33
43.70
14.49
-16.38
-43.57
-61.74
-67.25
-59.50
-41.20
-17.31
6.82
27.46
43.47
56.08
67.53
79.65
93.08
107.41
121.88
135.94
149.51
162.69
175.47
187.63
198.87
208.91
217.49
224.14
227.93
227.59
221.70
209.12
189.14
161.61
127.00
86.54
42.46
-2.06
-43.26
-77.79
-103.74
-121.19
-131.91
-138.43
-142.75
-145.53
-145.98
-142.49
-133.49
-118.14
-96.41
-68.72
-35.51
2.90
46.03
92.69
140.95
188.62
234.18
277.30
318.43
357.52
392.74
420.13
434.71
432.67
413.34
379.97
338.46
295.32
255.31
220.53
190.67
164.24
139.68
115.97
92.60
69.32
46.09
22.90
-0.05
-22.57
-44.69
-66.66
-89.20
-113.49
-141.01
-173.03
-209.72
-249.09
-286.57
-315.97
-331.65
-331.11
-316.48
-293.97
-271.22
-254.14
-244.73
-241.07
-239.14
-235.24
-227.71
-217.15
-205.48
-194.76
-186.26
-180.28
-176.24
-172.90
-168.63
-161.88
-151.59
-137.51
-120.38
-101.60
-82.88
-65.95
-52.32
-43.19
-39.14
-39.75
-43.39
-47.22
-47.68
-41.24
-25.27
1.20
37.04
79.00
122.48
162.63
195.63
219.65
234.97
243.37
247.15
248.24
247.87
246.65
244.85
242.62
239.96
236.57
231.79
224.79
214.83
201.58
185.17
166.14
145.24
123.26
100.80
78.20
55.28
31.43
5.62
-23.16
-55.47
-90.93
-128.00
-164.18
-196.54
-222.51
-240.65
-251.02
-255.19
-255.67
-255.09
-255.23
-256.40
-257.34
-255.78
-249.51
-237.56
-220.91
-202.30
-185.25
-172.69
-165.95
-164.48
-166.59
-170.49
-175.09
-180.21
-186.05
-192.59
-199.15
-204.54
-207.49
-207.16
-203.34
-196.27
-186.33
-173.91
-159.35
-143.22
-126.30
-109.31
-92.67
-76.38
-60.20
-44.07
-28.33
-13.56
-0.09
12.39
24.68
37.51
50.84
63.68
74.47
81.98
85.94
87.11
86.67
85.66
84.63
83.75
82.99
82.00
79.89
75.20
66.68
54.23
39.38
24.73
12.47
2.98
-5.27
-14.49
-25.68
-37.54
-47.20
-52.14
-52.14
-49.76
-48.78
-52.00
-59.58
-69.26
-78.04
-84.01
-87.15
-88.64
-89.55
-90.28
-91.13
-92.98
-97.46
-106.12
-118.98
-133.41
-144.75
-148.15
-140.73
-123.03
-98.81
-73.88
-54.25
-44.33
-45.39
-54.99
-67.49
-75.70
-73.78
-59.64
-35.47
-6.25
23.05
49.58
72.79
93.11
110.11
122.00
126.68
123.52
114.52
103.70
94.93
90.07
88.37
87.54
85.34
80.86
74.61
67.64
60.70
53.83
46.67
38.98
31.00
23.42
17.42
13.86
12.55
12.08
10.07
3.98
-7.71
-24.81
-45.42
-66.46
-84.67
-97.22
-102.17
-98.61
-87.08
-69.86
-51.02
-35.52
-27.28
-27.02
-31.29
-33.42
-26.52
-6.96
23.84
60.30
95.63
125.09
147.57
164.72
178.80
190.60
198.98
202.26
199.99
193.84
186.96
182.50
181.71
183.49
185.22
184.43
180.00
172.39
162.80
152.28
141.27
129.42
116.08
100.48
82.00
60.42
36.13
10.28
-15.76
-40.71
-64.21
-86.86
-109.73
-133.57
-158.21
-183.03
-207.56
-232.01
-256.69
-280.37
-299.18
-306.97
-297.73
-268.31
-219.97
-157.33
-85.75
-9.01
70.84
151.75
229.25
295.84
342.97
364.23
358.31
328.80
282.29
225.76
165.02
105.40
52.42
11.98
-11.18
-15.77
-5.27
12.81
29.94
40.29
42.59
39.51
35.19
31.94
28.92
22.89
10.26
-10.27
-37.08
-66.35
-93.99
-117.30
-135.60
-148.90
-156.83
-157.86
-150.11
-133.39
-110.76
-88.83
-75.68
-77.84
-97.82
-132.90
-175.88
-217.25
-247.71
-260.54
-252.84
-226.37
-186.59
-140.75
-95.53
-55.38
-21.71
5.78
28.10
45.73
58.49
66.73
71.62
75.38
80.06
86.32
92.61
96.53
96.08
90.91
82.70
74.17
67.71
64.23
62.72
60.37
53.83
40.33
19.04
-8.78
-40.00
-70.44
-95.78
-112.42
-117.82
-110.81
-91.67
-62.51
-26.69
11.33
47.34
78.26
102.95
121.98
136.54
147.16
152.88
151.78
142.02
123.18
97.24
68.26
40.88
18.57
2.17
-10.12
-21.49
-34.81
-51.10
-69.36
-87.09
-101.76
-111.46
-114.86
-111.01
-98.92
-78.46
-50.69
-18.79
12.37
38.31
56.87
69.53
80.81
95.90
117.83
145.97
176.03
201.73
217.34
219.94
209.89
190.59
166.95
143.12
121.78
103.37
86.77
70.67
54.71
39.95
28.50
22.46
22.57
27.52
34.60
40.77
44.01
43.83
41.28
38.06
35.39
33.57
32.06
30.04
26.91
22.73
17.70
12.02
5.79
-0.99
-7.99
-14.31
-18.88
-21.19
-21.51
-21.27
-21.83
-23.42
-25.17
-26.11
-26.35
-27.57
-32.34
-42.17
-56.00
-70.21
-79.82
-80.95
-72.59
-56.69
-37.31
-19.37
-7.12
-3.94
-11.74
-30.18
-56.23
-83.77
-105.17
-113.91
-107.66
-89.52
-67.11
-49.21
-41.96
-46.41
-58.35
-70.87
-78.22
-78.07
-71.81
-63.12
-55.19
-49.09
-44.39
-40.79
-39.43
-42.52
-51.43
-65.16
-80.61
-94.08
-102.92
-106.76
-107.05
-105.65
-104.21
-103.15
-102.41
-101.56
-99.73
-95.31
-86.86
-74.51
-61.45
-53.93
-58.39
-77.64
-108.35
-141.42
-165.83
-173.49
-161.97
-134.11
-95.53
-51.79
-7.82
31.31
59.50
71.05
63.86
42.10
16.12
-2.26
-4.92
9.17
34.21
61.74
84.64
99.38
105.55
104.24
97.06
86.42
76.64
73.57
82.72
105.98
140.11
177.25
208.58
227.55
232.34
225.56
211.30
193.34
173.37
151.64
127.99
103.37
80.18
61.09
48.00
40.58
36.91
34.23
30.66
26.04
21.32
17.77
16.06
15.82
15.53
13.34
7.85
-1.18
-11.94
-21.39
-26.37
-25.14
-18.03
-7.75
2.41
9.56
12.14
10.55
6.18
0.91
-4.13
-8.15
-11.02
-12.60
-12.55
-10.93
-7.89
-3.73
1.66
8.15
15.51
23.25
30.55
37.05
42.62
47.43
51.68
55.79
60.26
65.24
70.74
75.80
78.90
78.34
73.07
62.99
49.08
33.34
17.94
4.24
-6.91
-14.84
-19.40
-20.49
-19.10
-17.63
-18.63
-23.48
-31.18
-38.28
-40.33
-34.97
-23.26
-9.98
-1.81
-3.81
-16.73
-36.50
-55.93
-68.15
-69.30
-60.36
-45.71
-30.72
-19.12
-12.44
-10.21
-11.54
-16.27
-24.43
-34.97
-45.53
-52.62
-52.97
-46.17
-34.84
-23.65
-17.13
-16.97
-21.27
-25.69
-25.81
-19.26
-6.61
9.18
24.42
35.82
41.57
42.07
38.97
34.24
29.38
25.16
21.28
17.13
12.69
8.40
4.79
2.26
0.33
-1.98
-5.27
-8.96
-11.42
-11.02
-7.31
-2.00
1.53
-0.00
-7.68
-19.32
-30.07
-34.47
-29.45
-16.23
0.56
15.11
23.54
25.15
21.80
16.49
11.41
6.58
1.19
-5.00
-11.04
-15.17
-15.89
-13.36
-9.12
-4.44
0.21
5.15
10.83
16.91
22.37
26.40
28.96
30.31
30.60
28.81
23.33
13.59
1.07
-10.19
-15.10
-10.22
3.82
22.40
39.14
49.11
50.80
45.47
35.41
21.86
5.29
-13.09
-30.26
-41.34
-42.41
-33.62
-20.74
-12.77
-17.18
-35.45
-61.81
-86.55
-101.29
-103.11
-94.88
-83.04
-73.19
-67.91
-67.03
-69.11
-72.77
-76.49
-77.95
-73.72
-60.44
-36.63
-4.55
29.80
59.49
79.25
87.49
86.53
80.89
75.26
72.33
72.41
73.53
73.08
69.27
61.58
50.76
38.42
26.81
17.68
12.60
12.66
18.62
30.12
44.95
59.41
69.08
70.45
62.36
46.99
29.15
14.42
6.87
7.63
14.50
23.15
29.48
31.06
27.78
21.59
15.21
11.05
10.62
14.08
19.86
25.41
28.62
28.42
25.38
20.98
17.05
14.78
14.24
14.66
15.34
15.58
14.85
12.43
7.08
-2.07
-14.76
-28.68
-40.09
-45.17
-41.70
-30.17
-14.17
0.99
10.38
10.66
1.20
-15.52
-35.19
-52.83
-64.38
-68.26
-65.68
-60.12
-55.58
-54.80
-57.74
-62.18
-64.94
-63.48
-57.43
-47.95
-37.00
-26.98
-19.63
-15.69
-15.41
-18.02
-22.35
-27.50
-33.14
-39.65
-47.53
-56.04
-62.71
-64.26
-57.82
-42.92
-21.88
2.28
26.83
50.08
70.93
87.22
95.71
94.02
82.29
63.99
44.90
30.30
22.76
21.81
24.80
29.38
34.27
38.46
40.67
39.46
33.24
22.00
7.83
-5.92
-14.85
-16.42
-11.47
-3.71
3.18
7.65
11.05
16.32
25.61
41.44
62.91
84.47
98.09
98.28
84.67
62.26
38.52
19.96
14.64
26.18
50.63
77.51
95.41
97.01
81.91
55.74
28.38
17.24
37.33
94.29
181.78
286.49
393.52
490.12
566.91
583.08
514.24
371.53
199.69
45.33
-66.53
-133.10
-164.06
-174.21
-177.68
-179.04
-178.23
-174.80
-170.94
-169.53
-174.33
-186.35
-205.10
-227.91
-245.81
-249.47
-233.60
-200.46
-157.28
-112.56
-73.16
-43.36
-24.07
-10.45
2.42
17.64
34.32
48.58
55.46
50.50
30.49
-5.16
-52.61
-105.38
-155.65
-196.55
-222.66
-230.71
-220.65
-195.92
-162.59
-127.02
-94.40
-67.82
-48.83
-37.54
-32.94
-33.52
-37.32
-42.51
-48.21
-55.15
-65.40
-81.21
-103.65
-130.35
-155.89
-173.42
-176.96
-164.38
-137.47
-100.78
-59.91
-19.50
17.00
46.61
66.21
73.13
65.93
46.02
18.18
-10.31
-31.86
-41.34
-37.71
-24.27
-6.73
9.15
19.67
24.14
24.18
22.03
19.21
15.29
8.50
-2.68
-18.82
-38.06
-56.77
-70.73
-76.35
-71.92
-57.72
-35.42
-6.91
25.94
61.67
98.36
132.95
161.62
180.89
188.50
184.63
171.56
152.23
129.52
105.73
83.09
64.58
53.66
52.64
61.29
76.02
90.94
101.06
103.94
99.92
91.01
78.68
63.57
45.89
26.62
7.73
-8.80
-22.44
-34.71
-47.79
-62.52
-76.51
-85.17
-83.94
-71.74
-51.89
-31.05
-15.64
-8.68
-9.25
-13.74
-18.97
-23.74
-29.11
-36.83
-47.19
-58.15
-66.05
-67.79
-62.26
-50.97
-37.00
-23.11
-10.79
0.07
10.06
18.72
24.23
24.30
17.60
5.71
-7.11
-14.71
-11.87
2.72
25.84
50.75
70.41
80.70
81.89
77.68
72.97
71.02
72.21
74.59
75.64
73.55
68.18
60.54
52.06
43.93
36.77
31.06
27.14
25.35
25.53
27.11
29.42
31.70
32.86
32.47
30.93
30.05
32.38
40.12
53.96
72.14
91.43
108.33
120.42
127.42
130.34
130.42
128.40
124.00
116.90
107.33
96.90
87.99
82.99
83.29
89.04
99.06
111.28
123.20
132.63
138.06
138.54
133.52
122.80
106.17
83.43
55.29
23.52
-9.03
-38.60
-61.27
-73.69
-74.17
-63.97
-46.91
-28.27
-11.71
2.80
18.88
40.90
69.97
101.77
127.85
140.11
135.47
117.43
93.71
70.95
50.62
28.40
-2.74
-47.21
-104.36
-168.89
-233.25
-290.13
-334.01
-361.65
-372.61
-369.77
-358.87
-346.68
-337.87
-333.04
-328.68
-320.19
-304.75
-283.18
-258.80
-234.73
-212.18
-190.52
-168.83
-147.24
-127.25
-110.71
-98.61
-90.60
-85.54
-82.15
-78.85
-73.46
-63.85
-48.49
-28.21
-6.88
9.86
17.42
14.55
4.68
-5.84
-10.56
-5.75
7.64
25.05
40.23
48.51
48.59
42.95
35.59
30.05
28.03
29.22
32.28
35.63
38.43
40.47
41.65
42.23
43.04
45.30
49.66
55.40
59.89
59.67
52.44
38.65
21.60
5.53
-6.55
-14.67
-20.91
-28.13
-37.86
-49.43
-60.30
-67.20
-67.69
-60.85
-47.84
-31.01
-13.59
2.07
15.26
26.98
39.41
53.84
70.30
86.91
100.85
109.61
111.64
107.01
97.00
84.19
71.22
60.81
55.06
54.32
57.11
60.57
61.32
56.91
47.01
32.64
15.96
-0.49
-14.34
-23.56
-26.81
-23.50
-14.37
-0.89
14.75
30.69
45.61
58.99
71.49
84.69
100.74
121.19
146.33
174.10
200.06
218.77
224.55
213.63
185.06
141.23
87.93
33.31
-13.48
-44.44
-55.21
-46.66
-24.64
1.19
20.85
27.14
17.58
-5.48
-35.80
-64.54
-82.69
-83.18
-63.38
-26.54
18.67
60.74
89.16
97.70
85.81
57.95
21.55
-16.28
-50.44
-77.95
-97.79
-110.40
-117.01
-119.60
-120.41
-121.73
-124.85
-129.88
-135.41
-138.50
-135.55
-123.54
-101.69
-72.38
-40.35
-10.94
12.56
30.41
45.23
59.56
73.63
84.94
90.01
87.01
77.79
66.51
56.83
49.42
41.73
30.56
15.25
-1.34
-14.29
-20.35
-20.42
-19.33
-22.89
-34.79
-54.33
-76.99
-97.38
-111.40
-117.88
-117.91
-113.48
-106.53
-98.34
-90.14
-82.89
-77.39
-73.84
-71.62
-69.68
-66.15
-58.59
-44.87
-24.51
0.34
24.46
41.59
46.56
37.98
19.60
-1.31
-16.51
-20.82
-14.33
-1.93
9.96
16.31
15.69
10.44
4.14
-0.31
-2.15
-2.82
-4.26
-7.14
-10.10
-10.81
-7.15
0.53
9.97
17.98
22.60
24.43
25.72
28.97
34.55
40.29
42.39
38.00
27.10
13.08
1.48
-3.17
0.10
8.59
17.42
22.20
21.36
15.82
8.18
0.54
-6.70
-14.31
-23.17
-32.46
-39.55
-40.59
-32.53
-14.99
9.94
38.28
66.44
92.08
114.52
134.48
152.94
170.67
187.65
202.91
214.56
220.40
218.58
207.72
187.28
157.69
119.92
76.03
29.27
-16.13
-55.08
-82.87
-96.25
-94.76
-80.71
-58.19
-32.01
-6.03
16.67
33.84
44.00
47.10
44.91
40.67
37.52
37.23
40.08
45.89
55.33
69.86
90.44
116.21
143.42
166.19
179.11
178.84
165.12
140.26
107.39
69.92
31.47
-3.92
-32.15
-50.34
-58.72
-61.20
-63.42
-70.31
-84.25
-104.31
-127.72
-151.69
-174.89
-197.48
-220.15
-242.67
-263.34
-278.86
-285.56
-280.42
-262.32
-233.27
-198.71
-166.38
-143.69
-135.33
-140.48
-152.84
-162.92
-161.95
-145.80
-116.59
-81.15
-47.09
-19.53
0.78
16.24
29.24
40.09
46.94
47.31
40.79
30.22
20.90
18.12
23.82
35.92
49.36
58.70
61.13
56.76
48.03
38.26
30.42
26.72
28.43
35.97
48.52
63.57
76.78
82.90
77.67
60.55
35.04
8.52
-9.88
-12.85
1.81
29.97
62.21
87.16
96.45
87.10
61.95
27.14
-11.58
-51.13
-91.35
-132.51
-172.61
-206.17
-226.30
-227.85
-209.41
-174.23
-128.67
-79.32
-30.22
17.64
65.59
113.32
157.15
191.43
210.86
213.85
203.78
187.92
171.85
162.72
163.22
168.70
170.95
163.46
145.18
120.08
94.32
71.07
52.14
36.65
22.70
9.03
-4.16
-15.60
-21.35
-20.50
-15.02
-8.25
-3.95
-4.21
-7.93
-11.67
-12.20
-8.57
-3.34
-0.18
-1.28
-6.13
-11.73
-14.28
-11.30
-3.00
7.59
15.76
18.21
14.28
5.78
-3.83
-11.12
-13.54
-9.84
-0.47
12.43
25.67
35.35
37.85
31.02
15.16
-6.83
-30.01
-48.72
-58.93
-59.42
-52.40
-42.85
-36.24
-36.91
-46.50
-63.55
-84.62
-105.64
-123.71
-137.89
-148.51
-156.83
-163.83
-169.68
-173.74
-174.80
-171.48
-163.11
-149.77
-131.81
-109.82
-84.54
-57.21
-29.26
-2.52
21.18
39.41
49.36
49.33
39.70
22.91
2.68
-16.50
-30.50
-36.72
-36.01
-32.74
-31.93
-37.20
-49.16
-65.24
-80.01
-85.49
-73.96
-41.52
9.65
72.22
135.71
189.50
225.64
236.65
220.59
186.61
150.86
124.15
108.01
97.88
88.96
79.14
68.67
58.87
50.32
41.58
30.40
17.30
6.33
3.22
12.83
36.71
73.12
117.51
163.50
202.10
225.57
229.58
213.77
180.84
135.51
83.85
31.74
-17.07
-61.80
-103.32
-143.11
-182.09
-219.47
-253.04
-279.05
-293.63
-294.03
-279.36
-249.60
-205.93
-150.77
-88.47
-25.48
30.09
69.94
87.68
80.79
52.17
8.94
-39.70
-85.78
-124.59
-154.68
-176.78
-191.11
-196.66
-191.18
-173.51
-145.09
-110.24
-74.99
-44.42
-20.61
-2.01
14.95
33.94
56.47
81.35
105.02
122.77
131.07
128.66
118.17
104.90
95.51
95.48
106.97
127.29
149.49
164.74
164.96
145.96
108.18
56.70
-0.35
-53.61
-94.30
-115.83
-115.00
-93.66
-58.66
-20.30
10.33
25.09
21.74
4.04
-20.38
-42.83
-57.19
-60.85
-54.20
-39.03
-17.55
7.93
34.90
60.34
80.80
93.00
94.70
84.93
64.16
34.86
1.52
-29.91
-53.35
-64.60
-63.00
-51.49
-35.32
-19.36
-6.03
4.61
13.93
23.30
32.58
40.74
46.93
51.05
53.64
55.62
56.92
56.33
52.38
44.25
32.91
21.13
12.39
9.37
12.47
19.33
25.99
28.54
24.80
15.19
2.49
-9.57
-18.10
-21.97
-21.73
-18.26
-11.99
-2.33
12.09
31.51
54.71
78.72
99.31
112.92
117.47
113.14
101.70
86.32
69.96
54.87
42.27
32.09
23.76
16.16
7.97
-1.87
-14.13
-28.68
-44.44
-59.90
-73.11
-82.44
-86.33
-83.13
-71.68
-51.81
-25.74
1.79
24.51
36.87
36.92
27.22
14.30
5.02
3.01
7.54
14.20
18.27
17.54
13.26
8.48
5.71
4.66
2.57
-3.59
-15.23
-30.80
-46.30
-57.62
-62.21
-60.05
-53.81
-46.85
-41.92
-40.19
-40.49
-40.35
-37.12
-29.50
-17.93
-4.22
10.05
24.53
39.71
56.20
72.86
86.08
91.43
86.26
71.48
51.75
33.02
19.58
12.27
8.74
5.69
1.05
-5.24
-12.27
-19.35
-27.08
-36.97
-49.59
-64.19
-78.41
-88.68
-92.14
-86.92
-72.22
-48.76
-18.78
14.17
44.86
67.86
79.27
78.03
66.88
52.10
40.98
38.32
44.71
55.41
62.99
61.22
48.52
29.06
10.50
-0.10
-0.46
6.26
12.85
12.62
3.26
-12.29
-27.27
-34.73
-31.02
-16.84
3.81
25.56
43.93
56.01
60.51
57.54
48.71
36.76
25.32
17.80
15.37
16.30
15.92
8.38
-9.83
-37.49
-67.51
-89.79
-95.99
-84.29
-61.21
-38.81
-29.03
-37.35
-60.27
-87.05
-105.41
-107.82
-95.29
-75.43
-57.33
-46.77
-43.41
-42.16
-37.09
-25.07
-6.90
13.87
33.53
50.39
64.87
78.18
90.45
99.75
102.71
96.75
81.88
61.09
39.69
22.46
12.35
9.39
11.56
16.05
20.44
22.93
21.71
15.24
2.50
-15.59
-36.18
-55.11
-68.13
-72.67
-68.64
-57.26
-40.26
-19.33
3.54
25.58
42.53
50.00
45.24
28.52
3.59
-24.38
-51.00
-74.06
-93.66
-110.87
-125.14
-133.95
-133.44
-120.78
-95.91
-62.47
-27.25
2.39
20.65
25.80
20.57
10.94
4.00
5.00
15.92
35.29
59.21
83.89
106.99
127.97
146.87
163.13
174.65
178.48
172.59
157.50
136.36
113.36
91.46
70.98
49.96
25.33
-4.63
-38.88
-73.79
-104.53
-126.79
-138.16
-138.60
-129.55
-113.04
-90.83
-64.64
-36.95
-10.49
11.73
27.30
35.30
36.62
33.36
28.49
24.72
23.70
25.99
30.66
35.58
38.27
36.97
30.95
21.05
9.13
-2.70
-12.34
-18.08
-18.63
-13.50
-3.59
8.57
19.28
25.69
27.17
25.76
24.87
27.15
32.49
37.94
39.89
37.01
30.97
24.81
21.06
19.10
16.10
8.75
-4.09
-20.25
-35.74
-47.10
-53.69
-57.31
-60.69
-64.70
-67.90
-68.15
-64.98
-61.05
-60.53
-67.41
-81.73
-98.05
-107.80
-103.26
-82.37
-50.29
-17.23
7.44
17.91
15.09
5.39
-2.23
-1.27
9.17
25.43
41.88
56.27
67.88
78.12
89.55
104.44
123.38
145.40
169.36
194.76
223.18
252.39
275.48
283.85
271.13
236.68
187.14
134.67
81.76
39.93
16.88
7.70
-1.82
-24.15
-62.79
-111.83
-160.38
-201.28
-227.17
-235.43
-227.53
-206.73
-176.85
-142.32
-105.96
-74.09
-52.87
-44.05
-47.55
-60.58
-77.82
-92.53
-99.05
-94.78
-80.98
-61.17
-38.58
-17.23
-0.01
12.81
24.36
39.80
63.74
97.27
136.87
175.91
205.91
220.10
216.17
196.55
166.51
131.83
97.43
67.60
46.19
35.75
36.40
45.19
56.77
64.93
64.69
53.84
32.71
3.00
-32.76
-71.53
-109.82
-143.64
-169.45
-185.63
-192.80
-193.18
-189.42
-182.82
-173.49
-161.14
-146.19
-130.56
-117.20
-108.97
-107.30
-111.50
-118.91
-125.85
-128.98
-126.14
-117.24
-104.13
-89.77
-76.76
-66.13
-56.92
-47.18
-35.66
-22.84
-11.32
-4.92
-6.17
-15.28
-29.51
-43.92
-53.88
-56.72
-52.50
-43.84
-34.13
-25.65
-18.94
-13.00
-6.15
2.44
11.82
19.33
21.16
13.97
-3.60
-30.34
-62.31
-93.68
-118.08
-129.97
-125.46
-103.23
-64.89
-14.76
40.34
92.40
134.05
160.42
171.09
169.66
161.97
153.47
147.05
142.81
139.18
135.06
130.61
127.28
126.60
128.74
132.49
135.50
135.64
131.72
123.49
111.34
96.10
78.72
60.54
43.36
28.92
18.09
10.52
4.76
-0.91
-7.84
-17.08
-29.22
-45.06
-65.50
-90.02
-116.26
-139.33
-153.03
-152.25
-135.23
-104.68
-66.98
-30.03
-0.21
19.20
28.05
28.70
23.96
16.13
7.02
-2.05
-9.53
-13.29
-11.42
-3.20
10.05
24.71
36.12
40.87
38.31
31.27
24.94
24.04
30.97
44.93
62.18
78.02
88.52
91.71
88.19
80.59
72.54
67.36
66.98
70.81
76.35
80.11
79.05
72.20
60.68
46.73
32.96
21.14
12.25
6.95
5.64
7.72
11.11
11.95
5.25
-13.05
-44.23
-85.60
-130.78
-171.99
-202.81
-220.54
-226.74
-225.77
-221.85
-217.19
-211.06
-201.11
-185.53
-164.45
-139.72
-113.69
-87.65
-61.76
-36.11
-11.86
8.52
22.59
30.61
36.66
47.20
67.99
100.26
138.42
172.40
191.65
189.63
166.98
130.86
91.46
57.71
34.25
21.11
15.66
15.18
18.15
24.10
31.73
37.73
37.07
24.98
-0.95
-38.96
-83.21
-125.16
-155.91
-169.04
-162.29
-138.68
-105.28
-70.44
-40.68
-18.36
-1.69
12.94
27.81
42.26
53.80
60.36
62.85
65.12
71.50
83.62
99.11
112.95
120.85
121.87
118.46
113.99
110.06
105.51
97.58
85.05
69.87
56.84
50.87
54.15
64.56
76.56
83.83
81.91
69.98
50.27
26.62
2.61
-19.06
-37.07
-50.58
-59.07
-62.11
-59.61
-52.32
-41.91
-30.61
-20.33
-11.69
-3.79
5.19
16.63
30.78
46.39
61.78
75.69
87.64
97.65
105.51
110.59
112.07
109.88
105.02
99.66
96.16
95.58
97.44
99.93
101.49
101.03
98.34
93.15
84.89
72.89
57.06
38.80
21.14
7.86
1.71
2.99
8.68
13.55
12.34
1.93
-17.05
-40.43
-61.82
-74.53
-73.38
-56.15
-24.32
16.97
60.31
98.11
124.65
137.60
138.40
130.92
119.27
106.20
92.63
78.19
62.56
45.97
28.72
10.47
-10.05
-33.85
-60.55
-87.80
-112.75
-133.35
-149.90
-164.50
-178.94
-193.16
-204.55
-209.72
-206.99
-197.99
-187.18
-179.50
-177.48
-180.51
-185.59
-189.58
-190.68
-188.40
-182.17
-170.21
-149.82
-118.93
-78.26
-32.38
10.80
42.68
56.86
51.54
29.27
-3.61
-39.05
-68.93
-86.95
-89.38
-76.68
-53.28
-26.35
-3.57
9.63
11.55
3.77
-10.22
-27.13
-44.26
-58.35
-64.88
-58.72
-36.67
-0.31
42.96
82.31
107.57
113.45
100.93
75.69
44.57
12.84
-16.39
-41.14
-59.55
-70.18
-72.71
-68.76
-61.60
-54.85
-50.08
-46.41
-41.49
-33.62
-23.04
-12.10
-4.13
-1.60
-4.36
-10.05
-15.70
-19.63
-21.88
-23.66
-25.66
-28.04
-30.74
-34.92
-43.50
-59.91
-85.23
-115.69
-143.30
-159.01
-157.72
-140.69
-114.83
-88.32
-65.59
-44.77
-19.88
13.98
56.33
99.74
133.26
147.34
139.01
113.77
82.78
58.13
47.67
52.18
65.99
80.65
88.85
87.68
79.33
68.73
61.13
58.80
59.84
59.84
54.46
42.29
25.99
10.57
0.55
-2.73
-2.09
-2.98
-10.42
-25.89
-46.59
-67.02
-82.05
-89.67
-91.39
-91.15
-92.80
-97.57
-103.78
-108.01
-106.90
-98.99
-84.99
-66.85
-46.88
-26.31
-6.18
11.56
24.27
29.59
27.55
21.80
18.35
22.95
38.18
60.93
83.85
98.25
97.62
79.99
48.66
10.53
-25.95
-52.72
-64.55
-59.98
-41.70
-15.20
12.83
37.27
55.21
65.63
68.25
62.10
46.28
20.98
-11.43
-46.31
-77.95
-101.83
-116.38
-123.09
-125.13
-125.42
-125.50
-125.30
-124.08
-121.56
-118.86
-117.46
-118.31
-120.89
-122.08
-117.44
-102.49
-74.65
-35.16
11.06
57.27
97.40
128.40
151.15
168.80
184.66
199.84
212.48
219.46
218.72
210.73
197.94
182.75
165.88
145.80
120.71
90.70
58.57
28.88
5.39
-10.42
-19.29
-23.39
-25.36
-27.53
-31.94
-40.28
-53.12
-69.19
-84.64
-94.42
-94.57
-83.82
-64.27
-39.86
-14.55
8.95
29.34
45.56
56.13
59.85
56.36
46.74
33.93
21.29
11.70
6.61
5.18
4.78
1.85
-6.41
-21.16
-41.11
-63.40
-84.45
-101.68
-114.48
-123.49
-129.95
-134.45
-137.02
-137.31
-135.24
-131.46
-127.17
-123.78
-122.27
-122.75
-123.67
-122.11
-115.13
-101.00
-79.52
-52.93
-24.91
1.24
23.89
42.99
59.47
73.08
81.90
84.80
81.61
74.03
65.93
61.89
65.44
76.83
91.73
103.10
106.45
100.23
85.54
64.22
38.48
10.29
-18.65
-46.48
-70.20
-82.33
-76.45
-52.15
-17.11
17.45
43.11
57.52
64.56
71.86
92.32
135.69
204.18
291.85
388.99
487.09
579.10
658.23
687.75
641.05
522.19
367.85
219.90
102.33
19.84
-34.17
-69.40
-94.35
-109.36
-112.74
-105.91
-94.87
-87.12
-86.72
-93.83
-106.20
-121.23
-133.79
-141.08
-145.54
-151.62
-165.68
-191.06
-226.71
-267.44
-305.66
-330.46
-332.81
-309.37
-264.45
-207.84
-150.14
-99.66
-60.40
-32.36
-12.31
2.80
13.51
17.61
12.46
-2.29
-23.76
-47.06
-67.45
-81.51
-88.01
-87.74
-82.00
-71.99
-58.28
-41.99
-25.33
-11.47
-2.88
0.28
0.43
2.00
9.02
23.83
45.77
71.81
97.19
117.10
128.14
128.80
119.77
103.51
82.95
60.98
40.10
22.11
8.70
1.18
-0.10
3.73
10.06
15.74
19.09
20.65
22.79
28.18
37.45
48.72
58.68
64.87
66.65
65.61
63.32
60.04
54.44
44.86
31.47
17.07
6.20
2.07
4.39
8.98
9.79
2.47
-12.96
-31.41
-45.25
-48.42
-39.76
-23.61
-7.94
-0.44
-5.01
-20.44
-41.35
-60.62
-72.63
-74.13
-65.05
-47.64
-25.52
-2.71
17.16
31.57
39.07
39.59
33.93
23.31
9.20
-6.83
-22.09
-33.34
-37.36
-31.96
-17.32
3.84
26.51
45.48
56.90
59.71
55.98
50.19
47.02
49.55
57.57
68.12
76.25
77.40
68.99
51.39
27.81
2.70
-19.73
-36.95
-48.78
-56.76
-63.12
-69.27
-75.18
-79.65
-81.50
-81.05
-80.06
-81.01
-85.39
-92.52
-99.65
-103.61
-102.71
-97.20
-88.90
-79.19
-68.49
-56.03
-41.27
-24.68
-7.99
7.14
19.95
30.75
40.40
48.80
54.96
58.24
59.66
63.29
74.52
97.03
129.25
162.98
186.20
187.92
163.56
117.20
59.55
3.35
-41.34
-70.50
-85.26
-89.31
-86.31
-77.88
-64.68
-47.39
-28.21
-10.12
3.57
11.11
12.91
11.03
8.32
6.89
7.43
8.82
8.98
6.18
-0.25
-8.92
-17.22
-22.27
-22.07
-16.78
-8.46
-0.32
4.42
4.47
0.35
-6.01
-12.22
-16.69
-18.86
-18.91
-17.44
-14.95
-11.86
-8.59
-5.52
-2.59
0.60
4.74
10.23
16.94
23.85
29.72
33.59
34.94
34.17
32.16
30.03
28.81
29.42
31.78
34.90
36.81
35.32
29.38
19.47
7.51
-4.21
-14.05
-21.46
-26.22
-27.62
-24.29
-14.90
0.63
20.00
38.80
52.22
56.41
50.37
36.00
16.93
-2.51
-18.80
-29.96
-35.39
-35.91
-32.95
-28.35
-23.88
-21.37
-21.96
-26.13
-33.16
-41.07
-47.34
-49.54
-45.96
-36.20
-21.40
-3.66
14.32
30.07
41.69
48.81
52.09
53.15
53.62
54.06
54.16
52.64
48.11
40.10
29.41
17.78
7.36
-0.05
-3.75
-4.16
-2.54
-0.40
1.01
0.97
-0.61
-3.69
-7.99
-13.17
-18.61
-22.83
-23.77
-19.59
-9.58
4.94
21.17
35.71
45.85
50.97
52.25
51.63
50.99
50.64
49.71
46.79
40.83
32.38
23.60
17.11
14.78
17.00
22.01
26.70
28.26
25.30
18.64
10.96
5.39
4.00
6.96
12.41
17.65
20.48
20.46
18.88
17.97
19.22
22.20
24.16
21.02
9.73
-9.69
-33.92
-57.48
-75.00
-83.57
-83.03
-75.59
-63.90
-49.94
-34.97
-20.07
-6.96
2.27
5.91
4.04
-0.99
-5.59
-6.71
-3.46
2.41
7.66
9.33
6.74
1.39
-3.55
-5.05
-2.21
3.63
9.40
12.13
10.43
5.17
-1.23
-6.21
-8.82
-9.95
-11.79
-16.12
-23.21
-31.07
-36.45
-36.36
-29.49
-16.98
-1.47
14.14
27.91
39.32
49.06
58.01
66.77
74.88
80.57
81.66
76.32
64.26
47.57
30.00
15.46
6.41
2.51
1.30
-0.43
-4.87
-12.46
-21.91
-31.56
-40.37
-48.20
-55.31
-61.48
-65.58
-65.81
-60.54
-49.37
-33.49
-15.03
3.61
20.98
36.58
50.63
63.34
74.39
83.14
88.76
91.38
91.98
91.95
92.49
93.49
93.81
92.12
87.68
81.27
75.46
73.84
79.73
94.86
118.06
145.33
170.65
187.94
193.01
184.55
164.34
136.97
108.43
84.44
69.06
63.00
63.10
63.68
58.31
42.53
15.87
-17.58
-51.15
-78.22
-94.36
-99.18
-95.26
-86.45
-75.97
-65.11
-53.83
-41.68
-29.01
-17.04
-7.63
-2.58
-2.99
-9.08
-20.28
-35.12
-51.31
-66.35
-78.25
-86.24
-90.95
-93.43
-93.97
-91.25
-83.07
-67.72
-46.24
-23.47
-6.36
-0.77
-8.63
-26.63
-47.59
-64.19
-72.21
-72.31
-68.85
-67.15
-70.30
-77.43
-84.33
-86.04
-79.89
-67.02
-51.78
-39.33
-32.94
-32.65
-35.97
-39.67
-41.54
-41.20
-39.58
-37.60
-35.54
-33.12
-29.96
-26.28
-22.94
-20.97
-20.96
-22.77
-25.75
-29.24
-32.85
-36.19
-38.64
-39.33
-36.67
-29.56
-17.62
-1.77
15.96
33.41
48.73
61.22
71.44
80.50
89.29
98.05
106.17
113.12
118.98
124.32
129.51
133.80
134.80
129.21
114.28
89.11
55.05
14.86
-28.84
-74.81
-122.99
-173.64
-226.03
-277.34
-322.77
-357.31
-376.82
-379.88
-367.59
-343.04
-309.90
-271.23
-229.09
-185.17
-141.75
-101.41
-66.69
-38.81
-16.68
2.54
22.17
43.70
65.88
85.13
97.30
99.64
91.73
75.52
53.86
29.75
5.44
-16.98
-35.38
-47.32
-50.46
-43.56
-27.18
-4.18
21.21
44.19
60.91
69.06
68.45
60.54
48.54
37.09
31.20
35.56
52.58
81.10
116.35
150.61
175.66
184.70
173.88
143.41
97.42
43.69
-7.71
-46.91
-66.98
-66.16
-48.51
-22.31
3.42
22.15
31.92
35.21
36.19
38.20
42.19
46.52
48.31
44.55
33.02
12.57
-16.37
-51.37
-87.43
-117.11
-132.15
-125.75
-95.25
-44.49
16.50
74.39
116.02
132.54
121.41
86.28
35.69
-19.42
-68.18
-101.97
-116.24
-111.09
-90.89
-62.65
-34.44
-12.59
-0.28
2.88
0.54
-2.71
-2.98
1.42
10.06
20.81
30.77
36.85
36.55
28.27
12.17
-9.20
-31.18
-48.52
-57.36
-56.95
-49.69
-40.04
-32.12
-28.23
-28.05
-29.29
-29.32
-25.69
-17.25
-3.43
15.37
38.53
64.20
89.47
111.02
125.36
130.70
127.00
115.98
100.24
82.47
64.13
45.60
26.85
8.55
-7.66
-19.91
-27.43
-31.21
-33.42
-36.14
-40.45
-46.11
-52.86
-60.40
-69.08
-78.16
-85.30
-87.09
-80.43
-64.55
-41.99
-18.30
0.74
10.90
10.94
2.90
-9.79
-22.97
-33.10
-37.93
-36.72
-29.88
-18.94
-5.69
8.39
21.68
32.75
39.87
41.31
36.33
25.99
12.88
0.43
-7.97
-10.77
-7.76
-0.60
8.54
17.78
25.81
32.09
36.42
38.92
39.03
36.67
32.08
26.62
22.54
21.94
25.46
31.67
37.52
39.68
36.93
30.21
22.05
14.83
9.15
4.20
-1.30
-7.64
-14.03
-19.12
-21.81
-22.07
-19.90
-15.26
-7.51
3.33
16.25
29.24
40.05
47.82
53.15
57.73
62.65
67.28
69.64
67.95
62.19
55.09
50.31
50.63
55.97
63.28
68.46
68.06
60.98
48.45
32.60
15.53
-1.38
-16.99
-29.97
-38.42
-40.26
-34.26
-20.67
-1.50
20.13
40.40
56.27
65.76
68.20
64.57
56.79
46.49
34.91
22.23
8.50
-5.75
-19.06
-29.27
-34.84
-35.58
-33.38
-30.89
-30.84
-34.65
-42.07
-51.19
-59.54
-64.86
-66.15
-63.67
-58.87
-53.28
-47.62
-41.60
-34.08
-24.27
-12.15
0.76
12.37
20.85
24.80
23.94
18.48
9.08
-2.92
-15.58
-26.11
-32.04
-31.90
-26.15
-17.07
-7.50
-0.45
2.04
-1.12
-10.00
-23.17
-37.63
-49.67
-55.36
-53.07
-43.51
-29.54
-14.62
-0.64
11.94
23.46
33.32
39.58
39.50
31.50
16.85
-0.90
-17.26
-28.79
-34.28
-34.31
-30.41
-24.28
-17.58
-12.00
-9.25
-10.70
-15.86
-22.64
-27.68
-28.05
-22.75
-12.43
1.25
16.71
33.19
50.10
66.33
80.22
89.71
93.86
92.97
88.19
80.60
70.63
58.15
43.42
28.11
15.56
8.67
8.21
11.27
12.18
5.73
-9.81
-31.30
-51.70
-63.87
-64.20
-54.03
-38.58
-23.13
-10.72
-0.87
8.92
20.65
34.52
48.34
59.33
65.50
66.68
63.71
57.96
50.13
40.23
28.36
15.27
2.78
-6.82
-11.32
-9.73
-2.76
6.95
15.55
19.44
16.53
7.63
-4.41
-15.69
-23.21
-25.93
-24.29
-19.34
-11.38
-0.23
14.20
30.81
47.07
60.26
68.58
72.44
73.76
74.21
73.83
71.08
64.20
53.09
40.24
28.92
21.51
17.16
12.48
3.44
-12.18
-33.46
-56.88
-77.91
-92.95
-100.28
-99.99
-93.72
-84.10
-74.37
-67.64
-65.59
-67.35
-69.48
-67.64
-59.27
-45.22
-30.03
-19.47
-17.12
-22.02
-29.46
-33.62
-30.90
-22.12
-11.61
-4.61
-4.38
-10.29
-19.33
-27.90
-33.64
-36.32
-36.83
-35.89
-32.98
-26.56
-14.96
2.68
26.02
52.83
79.61
102.05
116.11
119.69
113.49
101.37
88.57
79.67
76.18
75.88
74.18
67.24
54.27
38.18
23.71
14.58
11.44
11.18
8.91
0.63
-14.80
-35.04
-55.41
-70.92
-78.06
-76.06
-66.54
-52.88
-38.46
-25.91
-15.65
-6.69
2.41
11.96
20.45
25.74
26.21
22.54
17.36
13.69
13.10
14.71
15.70
13.09
5.65
-5.64
-18.53
-31.77
-45.68
-62.03
-82.02
-104.91
-127.33
-144.63
-153.04
-150.86
-138.77
-118.93
-93.73
-64.66
-32.56
1.23
34.55
63.55
84.20
93.26
89.94
76.44
57.34
38.21
23.77
16.50
15.88
19.82
25.52
30.59
33.12
31.20
23.20
8.02
-13.18
-36.47
-55.94
-65.82
-62.98
-48.75
-28.01
-6.86
10.42
22.93
32.01
39.72
46.36
50.02
48.44
40.61
28.42
16.08
8.15
6.87
10.87
15.77
16.76
11.53
1.31
-9.66
-16.86
-17.92
-13.63
-7.15
-2.23
-1.48
-5.38
-12.35
-19.78
-24.41
-23.38
-14.87
1.12
22.21
43.86
60.39
66.85
61.09
44.34
20.54
-4.58
-25.77
-39.30
-43.36
-38.14
-25.35
-7.63
11.20
27.06
36.29
36.64
28.67
15.47
1.14
-10.71
-18.73
-24.00
-28.47
-33.60
-39.43
-44.53
-47.15
-46.37
-42.48
-36.72
-30.26
-23.79
-17.50
-11.85
-7.83
-6.68
-9.56
-15.85
-23.16
-28.04
-27.11
-19.59
-8.22
1.91
5.36
-0.31
-13.16
-28.12
-39.54
-44.57
-44.28
-42.13
-41.38
-42.93
-44.55
-42.78
-35.54
-22.81
-6.80
9.93
25.76
40.30
53.54
64.45
71.00
70.78
63.06
50.05
36.19
26.66
24.28
27.97
33.77
36.77
33.92
25.66
14.61
3.96
-4.90
-12.60
-21.19
-31.94
-44.60
-57.33
-67.79
-74.73
-77.93
-78.03
-76.15
-72.95
-69.04
-65.09
-61.52
-58.54
-56.16
-54.05
-52.04
-50.42
-49.40
-48.66
-47.60
-46.03
-45.10
-47.30
-54.59
-66.58
-78.99
-84.06
-73.83
-43.45
6.30
68.83
133.66
190.06
230.14
250.60
253.66
246.27
237.75
236.48
245.93
263.20
279.70
285.58
275.19
250.06
217.24
185.23
158.92
137.16
114.52
85.34
47.72
4.55
-38.32
-75.29
-102.81
-119.67
-125.58
-120.25
-103.91
-78.76
-49.80
-24.42
-10.12
-11.72
-29.30
-58.43
-92.01
-122.68
-145.15
-156.64
-156.98
-147.68
-131.46
-111.76
-91.98
-74.48
-59.81
-46.77
-33.08
-17.23
0.45
17.27
29.33
33.52
29.24
19.10
8.00
1.12
1.92
10.84
25.63
42.36
56.83
65.33
65.82
57.78
42.17
21.98
1.57
-13.99
-21.04
-18.35
-8.30
3.86
12.08
12.12
2.77
-14.33
-35.94
-59.30
-82.67
-105.36
-126.20
-143.61
-155.52
-160.72
-159.80
-154.60
-147.53
-140.07
-132.30
-123.51
-113.11
-101.02
-87.89
-74.57
-61.21
-47.56
-33.18
-17.63
-0.81
17.25
36.08
55.06
72.96
88.15
98.85
104.36
105.37
103.83
102.16
101.92
103.43
105.21
105.35
102.70
97.57
91.80
87.10
84.37
82.87
80.64
76.21
69.37
61.25
53.71
47.29
41.11
33.55
23.59
11.73
0.16
-8.87
-14.27
-17.01
-19.48
-24.14
-31.96
-42.37
-54.00
-64.99
-73.97
-79.87
-81.40
-77.56
-68.26
-55.39
-42.29
-33.09
-30.29
-33.61
-39.81
-44.18
-43.41
-37.21
-28.50
-21.74
-19.97
-23.40
-29.57
-34.74
-36.08
-33.28
-27.72
-21.36
-15.31
-9.29
-2.31
5.98
15.41
25.31
34.88
43.92
52.17
58.87
63.29
64.92
64.29
62.94
62.79
64.12
65.39
63.43
55.34
40.91
23.26
7.64
-1.13
-1.08
6.01
16.26
24.94
28.89
27.25
20.76
10.87
-1.19
-15.30
-31.93
-50.97
-71.80
-92.16
-109.03
-118.84
-118.84
-108.14
-88.69
-65.18
-43.27
-27.88
-21.17
-21.34
-24.33
-25.21
-20.78
-10.79
2.09
13.72
20.23
19.92
13.44
2.84
-9.37
-21.29
-31.81
-39.97
-45.00
-45.99
-42.22
-33.78
-22.15
-9.69
1.14
8.94
13.93
17.72
21.79
26.51
30.98
33.05
31.04
24.28
13.80
2.02
-8.64
-16.57
-21.54
-24.65
-27.44
-31.01
-35.61
-40.77
-45.94
-51.09
-56.38
-61.71
-66.31
-69.12
-69.35
-66.75
-61.55
-54.34
-45.84
-36.84
-28.02
-20.35
-15.31
-14.73
-19.40
-27.97
-36.92
-41.96
-38.85
-24.67
1.91
39.52
83.09
125.49
159.58
179.77
183.79
173.03
150.43
123.36
101.16
88.61
84.62
84.70
85.20
84.53
82.80
80.51
77.40
73.30
66.87
57.50
45.31
30.89
14.68
-3.45
-23.76
-46.56
-68.24
-86.82
-100.29
-106.92
-105.62
-96.73
-82.02
-64.74
-48.75
-37.59
-34.20
-38.32
-46.81
-54.87
-58.50
-56.14
-49.07
-39.95
-31.11
-24.18
-18.91
-13.74
-7.65
-0.79
5.14
7.89
6.01
-0.07
-8.06
-14.42
-15.54
-9.79
2.40
18.58
35.42
50.13
61.05
66.58
65.34
55.95
37.82
12.80
-15.08
-40.05
-56.89
-62.70
-58.28
-47.07
-33.56
-21.74
-13.43
-9.33
-9.29
-12.44
-18.08
-25.21
-32.27
-37.81
-40.95
-41.85
-41.96
-43.75
-49.46
-60.48
-76.30
-94.37
-111.35
-124.02
-130.23
-130.20
-126.10
-120.95
-117.52
-116.08
-114.12
-107.69
-92.97
-68.03
-34.37
4.00
42.62
77.71
107.91
133.49
154.80
171.49
181.92
184.03
177.20
163.04
144.93
127.31
114.47
108.85
110.83
118.54
128.55
137.08
140.52
136.40
124.12
104.63
80.35
54.75
31.34
12.79
0.82
-4.67
-4.93
-1.97
1.98
5.50
8.33
10.65
12.32
12.32
8.82
0.24
-13.82
-32.27
-52.30
-70.77
-84.96
-93.19
-95.24
-92.21
-85.94
-78.69
-72.44
-67.82
-64.44
-61.06
-56.19
-49.18
-40.05
-29.21
-16.92
-2.99
12.53
28.63
43.27
53.87
58.68
57.89
53.44
48.22
44.27
42.19
40.81
38.37
33.88
27.43
20.34
14.15
9.56
6.57
4.12
0.79
-4.74
-13.24
-24.68
-37.81
-50.42
-59.79
-63.03
-58.66
-46.78
-29.39
-10.10
7.63
21.27
30.10
35.12
37.89
40.02
42.51
45.40
48.57
51.49
54.11
56.14
57.11
56.58
54.02
49.51
43.75
37.81
32.33
27.25
21.44
14.00
5.22
-2.99
-7.54
-5.67
3.20
17.06
32.05
44.19
50.88
51.24
46.24
37.45
26.78
16.02
6.81
0.62
-2.03
-1.63
0.51
2.85
4.50
5.60
6.72
8.33
9.99
10.66
9.10
4.69
-2.30
-10.91
-20.06
-28.31
-34.07
-35.59
-31.86
-23.18
-11.67
-0.28
8.28
13.15
15.59
17.40
19.71
21.16
18.53
8.30
-10.69
-35.89
-61.94
-82.42
-93.02
-92.58
-83.31
-68.77
-52.32
-35.83
-19.62
-3.41
12.52
26.51
36.43
40.54
39.25
35.48
33.45
36.82
47.04
62.17
77.79
89.42
93.92
90.71
81.04
66.82
49.46
29.98
9.57
-10.42
-27.97
-42.03
-52.86
-61.92
-71.16
-81.15
-90.52
-96.36
-95.99
-88.43
-75.36
-60.27
-47.16
-38.90
-36.22
-38.02
-41.83
-45.12
-46.00
-43.92
-39.22
-32.90
-25.57
-16.97
-6.73
5.07
17.09
26.93
31.63
29.61
21.51
10.14
-0.32
-6.33
-6.14
-0.40
8.05
15.59
19.09
17.25
10.93
3.05
-3.27
-5.98
-5.19
-2.73
-0.88
-0.40
0.27
3.66
11.56
23.45
36.29
45.99
49.69
47.16
40.56
32.72
25.89
20.51
15.73
10.94
5.91
1.35
-2.21
-4.70
-6.98
-10.12
-14.98
-21.80
-30.51
-40.76
-52.10
-63.75
-74.62
-83.49
-89.44
-91.99
-91.36
-87.93
-82.06
-74.23
-65.26
-56.30
-48.69
-43.28
-39.74
-36.55
-31.85
-24.46
-14.48
-3.33
7.29
16.31
23.78
30.78
38.43
47.49
57.69
68.28
78.52
87.90
96.15
103.03
108.25
111.50
112.83
112.83
112.09
110.96
108.92
105.02
98.67
90.56
82.64
77.34
76.09
78.07
80.40
79.23
71.57
56.72
36.74
15.45
-2.78
-14.86
-19.52
-17.34
-10.19
-0.40
9.55
17.45
21.65
21.52
18.13
14.07
12.74
16.53
25.79
38.23
49.97
57.64
59.92
58.16
55.05
52.70
51.16
48.68
43.00
32.67
17.54
-1.94
-25.33
-52.30
-81.85
-111.84
-138.73
-159.22
-171.28
-175.03
-172.33
-165.84
-157.97
-150.58
-144.97
-141.72
-140.58
-139.83
-136.48
-127.37
-110.57
-86.57
-57.96
-28.28
-0.81
22.28
39.87
51.72
58.45
61.76
64.49
69.65
78.95
91.63
104.35
113.03
115.11
111.07
104.49
100.08
101.33
108.96
120.52
131.49
136.90
132.49
115.68
85.93
44.90
-3.32
-52.94
-97.06
-129.63
-146.90
-148.48
-137.01
-117.10
-93.65
-70.88
-51.32
-36.22
-25.80
-20.24
-19.99
-25.51
-36.54
-51.01
-64.65
-71.54
-65.89
-44.76
-10.20
30.34
66.44
89.14
95.40
89.42
79.99
75.13
77.19
81.81
81.46
71.08
52.36
33.31
23.58
28.25
44.46
62.90
73.52
71.15
58.19
42.45
32.54
33.00
42.20
53.61
58.80
51.14
27.98
-8.40
-51.80
-94.54
-129.92
-154.42
-168.79
-176.97
-183.88
-192.85
-204.10
-215.38
-223.57
-226.55
-224.08
-217.14
-206.54
-191.68
-170.41
-139.65
-96.81
-40.70
27.86
105.36
185.14
257.40
310.83
336.38
331.55
303.51
267.67
241.92
238.33
257.42
288.48
315.19
324.25
311.28
281.02
242.73
203.82
166.48
128.56
87.22
42.35
-3.12
-45.84
-85.57
-126.49
-174.95
-235.15
-305.18
-376.24
-435.71
-472.05
-479.58
-460.38
-422.81
-377.74
-334.21
-297.09
-266.77
-240.75
-215.64
-188.57
-157.65
-122.34
-83.59
-43.59
-5.60
27.34
53.42
72.49
85.97
95.68
102.92
108.07
110.72
110.29
106.33
98.49
86.48
70.28
50.99
31.50
16.47
11.07
18.59
38.61
66.47
94.96
117.15
129.06
130.82
125.82
118.55
112.47
109.23
108.57
109.20
109.47
107.43
100.79
87.13
64.68
33.90
-1.97
-37.36
-65.92
-82.81
-86.19
-77.51
-60.44
-39.26
-17.36
3.55
23.04
41.18
57.74
71.85
82.38
88.48
90.04
87.79
83.00
77.11
71.52
67.43
65.93
67.85
73.71
83.34
95.57
108.28
118.69
124.08
122.47
113.30
97.58
77.63
56.44
36.79
20.52
7.94
-1.88
-10.69
-20.07
-30.80
-42.76
-55.55
-69.10
-83.93
-100.71
-119.32
-138.21
-154.32
-164.39
-166.31
-160.48
-150.14
-139.94
-134.42
-135.80
-143.20
-152.95
-160.34
-161.72
-155.99
-144.95
-132.08
-120.84
-113.05
-108.40
-104.99
-100.26
-91.75
-77.15
-54.36
-21.75
20.66
70.16
120.97
165.51
196.99
212.35
213.42
206.22
198.57
196.40
201.48
211.35
221.01
226.53
227.08
225.26
224.74
227.65
232.62
235.68
232.79
222.28
205.61
185.73
164.86
143.25
119.86
94.32
68.43
45.74
29.53
20.98
18.63
19.74
21.96
24.27
26.15
26.51
22.90
11.96
-9.24
-42.19
-86.86
-141.40
-202.13
-263.20
-316.63
-353.60
-367.14
-354.81
-320.34
-272.58
-222.42
-179.28
-148.96
-133.57
-132.78
-145.34
-169.36
-201.94
-238.91
-275.28
-306.73
-330.68
-346.74
-355.84
-358.72
-354.93
-342.63
-319.70
-285.18
-240.42
-189.31
-137.47
-91.00
-54.83
-31.24
-18.98
-13.38
-7.76
4.51
27.73
62.30
104.58
148.10
185.61
211.45
223.17
221.87
211.37
196.02
179.00
160.91
140.28
114.93
83.96
48.85
12.92
-20.01
-47.63
-69.70
-87.60
-103.00
-116.57
-127.64
-134.46
-135.14
-128.04
-111.99
-86.20
-50.53
-6.04
44.57
97.19
147.33
191.35
227.52
255.73
276.57
290.33
296.53
294.97
286.43
274.05
262.49
256.41
258.29
266.40
275.20
277.37
267.25
243.48
209.85
173.67
142.45
120.75
108.33
101.16
93.43
80.26
59.40
31.14
-2.62
-39.32
-75.86
-108.37
-132.41
-144.31
-143.37
-133.58
-123.38
-123.10
-140.88
-178.95
-232.86
-293.11
-348.91
-391.80
-417.40
-424.85
-415.24
-390.26
-352.04
-303.75
-250.11
-196.74
-148.91
-110.17
-82.02
-64.43
-57.16
-60.56
-75.10
-100.16
-132.78
-167.50
-197.48
-216.59
-221.32
-211.51
-189.68
-159.42
-123.94
-85.24
-44.02
-0.17
46.74
96.73
148.82
200.65
248.48
287.83
314.65
326.61
324.02
309.82
288.52
264.96
242.93
224.53
210.03
198.34
187.55
175.65
161.03
143.00
122.12
100.34
80.84
67.51
64.23
73.32
94.26
122.95
152.10
173.53
180.90
172.07
149.69
119.74
88.77
61.37
39.07
21.00
5.18
-10.06
-25.53
-41.31
-57.05
-71.99
-85.00
-94.75
-100.27
-101.60
-100.17
-98.39
-98.96
-104.16
-115.46
-133.32
-156.85
-183.82
-210.66
-233.17
-247.21
-249.51
-238.23
-213.00
-174.92
-126.53
-71.77
-16.05
34.73
75.59
104.14
121.67
132.64
142.99
157.54
177.66
200.20
218.94
227.65
223.30
207.46
185.15
162.27
143.01
129.11
119.73
113.77
111.29
113.87
122.99
138.02
156.23
174.04
188.81
198.08
199.60
191.10
170.86
138.71
96.19
46.97
-3.67
-49.96
-88.72
-119.34
-142.83
-160.33
-168.87
-165.63
-151.09
-133.60
-116.49
-101.28
-87.00
-74.10
-63.15
-54.44
-47.91
-42.76
-37.27
-29.05
-17.80
-5.18
5.68
12.31
13.85
11.16
6.31
2.02
1.17
4.80
12.71
23.92
37.52
52.26
66.25
76.91
82.17
81.60
76.45
69.55
63.85
61.26
60.98
59.78
53.63
39.85
18.92
-6.14
-30.93
-51.93
-67.33
-77.47
-83.81
-87.52
-89.13
-88.75
-87.32
-86.82
-90.06
-99.00
-113.20
-129.62
-143.68
-151.20
-150.64
-143.68
-134.30
-127.03
-124.84
-128.08
-134.64
-140.80
-142.68
-137.46
-124.41
-105.19
-83.31
-62.81
-46.32
-33.75
-21.89
-5.71
19.28
54.60
97.60
142.02
180.29
206.04
215.99
210.51
192.48
165.96
134.98
103.07
73.25
48.21
29.58
17.24
8.87
0.29
-12.82
-32.94
-59.19
-87.29
-111.25
-125.85
-128.79
-121.59
-108.71
-95.42
-85.71
-81.12
-80.82
-82.71
-84.94
-86.92
-89.44
-94.07
-101.70
-111.92
-122.94
-132.16
-137.17
-136.46
-129.63
-117.34
-100.90
-81.69
-61.30
-41.50
-24.11
-10.50
-0.77
6.56
14.44
26.24
44.55
69.46
98.10
125.69
147.40
159.94
162.05
154.36
138.94
119.39
99.25
81.16
66.84
57.30
52.95
52.84
54.95
56.59
56.30
52.66
44.08
29.54
9.99
-11.25
-29.83
-40.86
-39.71
-22.07
13.13
62.27
117.74
170.60
213.08
239.21
247.11
228.80
184.71
126.80
72.43
32.76
9.16
-2.94
-10.69
-18.78
-27.49
-34.89
-39.55
-42.10
-45.07
-50.87
-60.53
-76.22
-98.85
-127.04
-159.29
-194.08
-229.36
-262.11
-287.55
-288.92
-261.54
-221.08
-175.37
-130.55
-90.63
-55.49
-25.17
2.62
31.16
60.54
89.52
117.36
141.33
158.53
166.75
165.01
154.45
137.87
117.07
94.58
74.36
58.58
47.92
41.66
37.90
34.51
29.51
20.79
8.23
-5.58
-17.82
-25.91
-28.27
-24.79
-16.46
-5.08
6.97
17.88
27.11
34.23
39.01
41.45
41.73
40.46
38.34
35.90
33.27
30.27
26.26
20.61
13.10
4.25
-4.96
-13.44
-20.31
-25.20
-27.86
-28.04
-25.38
-19.66
-11.07
-0.49
10.59
20.53
27.91
31.76
31.76
28.00
20.95
11.60
1.29
-8.32
-15.85
-20.52
-22.64
-23.29
-24.15
-26.65
-31.54
-38.62
-46.74
-54.45
-60.58
-64.59
-66.43
-66.39
-64.54
-60.72
-54.74
-46.40
-36.00
-24.11
-11.91
-0.60
8.63
14.99
18.52
19.80
19.82
19.25
18.18
15.95
11.55
4.44
-5.22
-16.44
-28.29
-40.23
-52.40
-65.13
-78.17
-90.11
-98.47
-100.35
-93.75
-78.52
-56.77
-32.14
-8.62
11.09
26.24
38.00
48.26
58.72
69.37
79.10
86.11
88.86
87.15
82.01
75.32
68.74
63.13
58.41
53.77
48.38
41.85
34.37
26.43
18.70
11.68
5.79
1.59
-0.15
1.27
6.13
13.69
22.38
30.48
37.27
43.33
49.87
57.94
66.86
74.24
76.78
71.70
58.31
38.87
17.37
-1.70
-15.25
-22.44
-24.53
-23.67
-21.71
-19.62
-17.49
-14.93
-11.71
-8.14
-4.69
-1.73
1.29
5.95
14.17
27.28
45.02
65.23
84.32
98.44
104.90
102.81
93.03
77.74
59.30
39.74
20.49
2.34
-14.39
-29.41
-43.04
-55.83
-68.69
-82.49
-98.02
-115.26
-133.23
-149.73
-161.32
-164.29
-155.72
-135.08
-105.06
-71.30
-40.76
-19.45
-10.30
-12.28
-21.18
-31.66
-39.77
-44.40
-46.97
-50.03
-55.29
-62.23
-68.60
-71.67
-69.73
-63.00
-53.22
-42.43
-31.79
-21.35
-10.24
2.30
16.20
30.73
44.84
57.69
69.21
79.54
89.04
97.87
105.94
112.83
117.91
120.38
119.55
115.25
108.00
99.22
90.55
82.94
75.93
67.80
56.38
40.69
22.04
3.64
-10.51
-17.55
-17.10
-11.62
-5.05
-1.37
-2.92
-10.10
-21.36
-33.92
-44.48
-50.20
-49.14
-41.05
-27.36
-10.71
5.97
20.50
31.98
40.72
47.80
54.45
61.29
68.19
74.12
77.05
74.93
66.61
52.95
37.15
24.19
18.90
23.59
36.60
52.37
63.28
62.80
48.65
24.13
-3.03
-23.62
-30.92
-23.41
-5.35
15.17
29.49
31.43
18.92
-6.36
-40.18
-77.21
-111.94
-138.87
-152.96
-150.90
-132.04
-99.25
-58.52
-17.31
17.43
41.06
52.27
53.09
48.23
43.50
43.99
52.47
68.39
88.21
106.89
119.89
124.67
121.02
110.33
94.28
73.63
47.79
15.25
-25.24
-73.29
-125.78
-176.82
-218.86
-244.90
-250.86
-237.33
-209.43
-174.94
-141.33
-113.68
-93.96
-81.68
-75.39
-73.63
-75.49
-80.10
-86.13
-91.09
-91.23
-82.04
-59.60
-22.65
26.33
80.74
131.79
171.37
194.63
201.19
193.83
176.72
153.49
126.44
97.23
67.52
39.22
14.19
-6.27
-21.88
-32.70
-38.84
-40.01
-36.01
-27.79
-18.42
-12.81
-16.36
-32.56
-60.58
-94.74
-126.15
-145.84
-148.56
-134.83
-110.37
-82.73
-57.44
-35.47
-13.64
12.40
45.08
82.70
119.94
150.36
168.83
173.31
164.86
146.31
120.87
91.27
59.99
29.63
3.36
-15.70
-25.77
-27.09
-22.37
-15.44
-9.83
-7.12
-6.33
-5.14
-1.74
3.78
9.20
11.84
10.71
7.37
5.12
6.53
11.62
17.64
20.63
17.87
9.63
-1.46
-11.87
-18.99
-22.08
-21.72
-18.84
-14.29
-8.70
-3.35
-0.10
-1.07
-7.82
-20.72
-38.44
-58.09
-75.81
-87.41
-89.17
-79.13
-57.67
-27.76
5.78
37.32
62.15
77.44
82.66
79.27
69.84
57.40
44.60
33.21
24.28
18.00
14.10
11.95
10.86
9.92
8.44
5.83
1.81
-3.63
-10.36
-18.22
-27.09
-36.75
-46.58
-55.32
-61.29
-62.73
-58.49
-48.72
-34.93
-20.01
-6.87
2.13
6.35
6.65
4.81
2.63
1.18
0.59
0.21
-0.53
-2.02
-4.11
-6.54
-9.33
-12.58
-16.44
-20.28
-22.62
-21.71
-16.39
-7.17
3.66
12.71
16.94
15.05
8.20
-0.68
-8.01
-11.09
-8.94
-2.14
7.56
18.00
27.01
32.80
34.34
31.67
26.03
19.70
15.30
14.75
18.86
26.77
36.66
45.99
52.44
54.40
50.94
42.39
30.31
17.14
5.58
-2.19
-5.67
-5.76
-4.38
-3.62
-4.65
-7.42
-10.72
-12.99
-12.66
-9.04
-2.44
5.65
13.17
17.96
18.77
15.73
9.95
3.18
-3.38
-9.42
-15.29
-21.47
-27.78
-33.40
-37.18
-38.12
-36.18
-32.16
-27.25
-22.51
-18.64
-15.59
-13.52
-12.69
-13.50
-16.51
-21.87
-29.08
-36.63
-42.66
-44.92
-41.97
-33.55
-21.04
-6.98
5.40
13.58
16.67
15.55
12.88
11.69
14.36
21.42
31.38
41.15
47.05
46.14
37.25
21.55
1.96
-17.44
-33.15
-43.08
-46.97
-46.12
-42.68
-38.65
-35.67
-34.65
-35.95
-39.02
-42.55
-44.41
-42.30
-34.64
-21.15
-3.13
16.95
36.32
52.43
63.42
68.34
66.93
59.75
48.13
34.18
20.50
9.46
2.35
-1.00
-2.23
-3.73
-7.34
-13.76
-22.15
-30.62
-36.75
-38.56
-34.66
-24.73
-9.56
8.48
25.82
38.22
42.43
37.58
25.93
11.86
-0.29
-8.03
-11.61
-12.95
-13.76
-13.93
-11.43
-3.97
9.11
25.32
39.67
46.73
43.21
29.76
10.50
-8.51
-22.22
-28.23
-27.60
-23.34
-18.73
-15.89
-15.49
-17.59
-22.42
-30.90
-43.39
-58.91
-74.11
-84.31
-85.23
-75.02
-55.66
-31.76
-9.14
7.91
17.65
21.00
20.44
18.36
16.54
15.81
16.56
18.79
22.33
26.40
29.65
30.76
28.91
24.61
19.30
15.02
13.34
14.91
19.20
24.90
30.49
34.49
36.12
34.75
30.53
24.11
16.86
10.56
6.78
6.38
8.78
12.44
15.26
15.77
13.57
9.37
4.33
-0.48
-4.67
-8.22
-11.07
-12.88
-13.07
-11.57
-9.19
-7.53
-8.29
-12.27
-18.55
-24.77
-28.10
-26.67
-20.61
-11.97
-3.72
1.79
3.93
3.97
4.13
6.11
10.26
15.54
20.43
23.97
26.14
27.60
28.78
29.48
28.76
25.86
20.61
13.76
6.50
-0.02
-5.22
-8.94
-11.46
-13.15
-14.41
-15.78
-17.42
-19.49
-21.88
-24.51
-27.59
-31.61
-37.18
-44.27
-51.77
-57.17
-57.88
-52.07
-39.95
-23.60
-6.11
9.74
22.08
30.17
33.77
32.83
27.73
19.48
9.98
1.52
-3.88
-5.22
-3.03
1.29
5.92
9.60
11.61
11.65
9.59
5.63
0.17
-5.85
-11.13
-14.60
-15.36
-13.21
-8.43
-1.39
7.40
17.66
28.93
40.46
50.95
59.09
63.74
65.00
63.97
62.55
62.53
64.77
68.82
73.31
76.77
78.22
77.49
74.79
70.35
64.21
56.47
47.60
38.59
30.81
25.23
22.07
20.88
20.59
20.32
19.41
17.58
14.75
10.86
5.96
0.41
-4.98
-9.28
-11.74
-12.36
-11.77
-10.98
-10.72
-11.10
-11.54
-11.23
-9.84
-7.80
-6.36
-7.03
-11.01
-18.38
-28.11
-38.06
-45.84
-49.64
-48.73
-43.97
-37.36
-31.48
-28.58
-29.70
-34.47
-41.35
-48.41
-53.99
-57.31
-58.27
-57.19
-54.24
-49.46
-42.72
-34.20
-24.50
-14.54
-5.79
0.28
2.01
-1.81
-11.73
-26.95
-44.96
-62.12
-74.48
-79.40
-76.31
-66.92
-54.32
-41.64
-31.10
-23.46
-18.69
-16.45
-16.82
-20.07
-26.15
-33.88
-40.89
-44.28
-41.71
-32.72
-18.69
-2.32
14.06
29.09
42.87
55.84
67.37
75.84
78.39
73.15
60.08
41.83
22.82
7.59
-0.68
-1.44
3.78
11.94
20.02
25.55
27.27
24.89
18.66
9.21
-2.68
-15.87
-29.07
-40.56
-48.88
-52.89
-52.00
-46.27
-36.23
-22.90
-7.55
8.16
22.92
35.66
45.55
52.36
55.62
55.26
51.56
45.46
38.48
32.55
28.95
27.96
28.77
29.82
29.99
29.01
27.76
27.44
28.98
32.01
34.85
34.64
28.38
14.02
-8.17
-35.14
-61.83
-82.44
-93.00
-92.65
-83.65
-70.44
-57.38
-46.90
-39.18
-32.70
-25.87
-18.00
-9.54
-1.67
4.57
8.96
11.80
13.73
15.01
15.31
13.86
9.79
2.89
-6.11
-15.45
-23.03
-27.12
-27.30
-24.59
-21.15
-19.04
-19.27
-21.62
-24.49
-25.94
-24.55
-19.47
-10.51
1.82
16.65
32.50
47.24
58.58
64.59
64.41
58.64
49.28
39.08
30.77
26.55
27.21
32.03
38.90
44.84
47.16
44.65
38.07
29.86
23.06
19.74
20.09
22.43
24.25
23.58
19.78
13.58
6.49
-0.02
-5.06
-7.99
-8.40
-6.15
-1.36
5.17
12.06
17.81
21.32
22.40
21.71
20.13
18.04
15.00
10.12
2.76
-6.83
-17.37
-27.11
-34.56
-39.20
-41.22
-41.11
-39.11
-35.18
-29.47
-22.80
-17.05
-14.41
-16.58
-23.62
-33.72
-43.88
-51.07
-53.37
-50.44
-43.47
-34.18
-24.26
-14.75
-6.21
1.16
7.12
11.45
14.12
15.37
15.98
16.93
19.16
22.94
27.80
32.57
35.78
36.23
33.25
26.99
18.28
8.40
-1.23
-9.40
-15.34
-18.84
-20.00
-19.11
-16.38
-12.01
-6.36
-0.06
5.95
10.81
14.13
16.23
17.83
19.72
22.00
24.16
25.30
24.68
22.28
18.68
14.94
12.01
10.52
10.51
11.56
13.00
14.14
14.64
14.67
14.81
15.52
16.82
17.95
17.79
15.48
10.96
5.16
-0.65
-5.42
-9.10
-12.42
-16.37
-21.44
-26.96
-31.46
-33.21
-31.21
-25.57
-17.57
-8.94
-1.18
4.90
9.34
12.48
14.75
16.18
16.58
15.85
14.09
11.77
9.45
7.57
6.21
5.23
4.23
2.81
0.58
-2.84
-7.66
-13.94
-21.28
-28.75
-35.07
-38.78
-38.93
-35.19
-28.29
-19.49
-10.31
-1.75
5.72
12.15
17.64
21.82
24.05
23.53
20.05
14.15
7.14
0.59
-4.14
-6.32
-6.05
-4.12
-2.05
-1.51
-3.58
-7.89
-12.25
-13.09
-6.88
8.20
31.21
58.61
85.45
107.49
122.43
130.45
133.42
133.58
132.18
128.85
121.72
108.37
87.17
58.22
23.61
-13.07
-47.97
-78.07
-101.50
-117.63
-126.78
-129.91
-128.79
-125.87
-123.73
-124.46
-128.49
-134.24
-138.55
-137.97
-130.09
-114.68
-93.46
-69.40
-45.52
-23.93
-5.58
9.28
20.64
28.23
31.65
30.72
25.79
17.91
8.36
-1.83
-12.28
-22.86
-33.37
-43.16
-51.24
-56.93
-60.31
-62.21
-63.49
-64.19
-63.09
-58.56
-49.77
-37.90
-26.15
-18.50
-17.58
-23.31
-32.61
-41.06
-45.00
-43.18
-36.72
-27.71
-17.37
-5.11
10.80
31.73
56.90
83.29
106.74
123.94
134.00
138.84
141.86
146.20
153.23
162.06
170.37
175.54
175.90
171.04
161.66
148.90
133.84
117.58
101.10
85.56
72.06
61.33
53.25
46.75
39.93
30.93
18.77
3.86
-12.05
-26.81
-39.05
-48.93
-58.05
-68.47
-81.51
-97.09
-114.20
-131.71
-149.16
-166.78
-184.55
-201.17
-213.79
-218.78
-213.19
-196.21
-169.52
-136.46
-100.79
-65.34
-31.68
-0.45
28.01
53.05
73.68
88.84
97.60
99.32
93.75
81.26
63.27
42.52
22.86
8.43
2.40
5.84
17.23
33.15
49.43
62.84
72.01
77.42
80.51
82.59
84.06
84.47
83.13
79.92
75.41
70.71
66.88
64.58
63.88
64.42
65.46
65.99
64.72
60.23
51.50
38.46
22.36
5.70
-8.48
-17.63
-20.52
-17.62
-10.76
-2.23
6.13
13.52
20.27
27.27
35.16
43.69
51.45
56.28
56.08
49.74
37.45
20.68
1.50
-17.83
-35.50
-50.09
-60.85
-67.68
-71.22
-72.69
-73.50
-74.87
-77.43
-81.14
-85.48
-89.80
-93.44
-95.78
-96.19
-94.01
-88.90
-81.10
-71.67
-62.22
-54.22
-48.31
-43.98
-39.95
-34.97
-28.64
-21.76
-15.87
-12.47
-12.15
-14.29
-17.33
-19.58
-19.95
-18.38
-15.68
-13.09
-11.75
-12.44
-15.52
-20.90
-28.10
-36.01
-43.01
-47.10
-46.58
-40.66
-29.90
-16.17
-1.93
10.67
20.38
27.01
31.13
33.53
34.82
35.45
35.74
36.03
36.51
37.09
37.33
36.67
34.76
31.65
27.66
23.01
17.53
10.88
2.92
-5.81
-14.19
-20.99
-25.53
-27.98
-28.99
-29.05
-27.94
-24.80
-18.84
-10.02
0.65
11.49
21.05
28.66
34.50
39.05
42.53
44.56
44.54
42.18
37.97
33.07
28.83
26.18
25.23
25.32
25.42
24.63
22.54
19.41
16.04
13.45
12.49
13.47
15.97
18.97
21.14
21.29
18.79
13.74
7.06
0.21
-5.12
-7.62
-6.81
-3.30
1.37
5.28
6.81
5.25
0.90
-5.30
-12.36
-19.67
-27.01
-34.24
-41.03
-46.74
-50.72
-52.72
-53.04
-52.37
-51.52
-51.00
-51.08
-51.84
-53.33
-55.60
-58.64
-62.19
-65.73
-68.63
-70.45
-71.15
-71.10
-70.75
-70.29
-69.48
-67.64
-64.13
-58.75
-51.87
-44.43
-37.63
-32.81
-31.09
-33.23
-39.25
-48.25
-58.34
-67.18
-72.77
-74.30
-72.56
-69.34
-66.21
-63.21
-58.18
-47.29
-26.43
6.80
51.67
103.95
157.07
204.10
240.08
263.51
276.58
283.80
289.68
296.70
304.31
309.36
307.85
296.92
276.15
247.66
215.00
181.68
150.02
120.66
93.12
66.54
40.51
15.45
-7.69
-27.94
-44.72
-57.88
-67.42
-73.16
-74.80
-72.32
-66.67
-59.95
-55.16
-55.15
-61.48
-73.80
-90.08
-107.47
-123.59
-137.30
-148.71
-158.60
-167.56
-175.48
-181.50
-184.33
-182.85
-176.67
-166.45
-154.00
-141.85
-132.62
-128.25
-129.38
-135.20
-143.58
-151.70
-156.58
-155.64
-146.97
-129.75
-104.60
-73.80
-41.09
-10.62
14.28
32.47
45.42
56.55
69.56
86.87
108.42
131.83
153.41
169.80
179.35
182.58
181.61
178.84
175.68
171.83
165.54
154.62
137.62
114.70
87.50
58.39
29.47
1.83
-24.27
-48.73
-70.69
-88.18
-98.52
-99.33
-89.94
-72.11
-50.06
-29.32
-15.09
-10.50
-15.78
-28.28
-43.61
-57.16
-65.56
-67.62
-64.33
-58.04
-51.20
-45.27
-40.36
-35.58
-30.05
-23.56
-16.77
-10.61
-5.49
-0.77
5.10
13.70
25.72
40.39
55.67
68.99
78.10
81.73
79.57
72.11
60.15
44.44
25.60
4.31
-18.40
-40.81
-60.59
-75.27
-83.01
-83.30
-77.16
-66.81
-54.85
-43.46
-33.89
-26.51
-21.14
-17.54
-15.59
-15.25
-16.21
-17.86
-19.36
-20.03
-19.71
-18.88
-18.49
-19.60
-22.85
-28.13
-34.45
-40.09
-43.15
-42.27
-37.27
-29.32
-20.59
-13.36
-9.08
-7.93
-8.85
-10.25
-10.63
-9.04
-5.04
1.47
10.39
21.40
33.85
46.76
58.95
69.29
76.89
81.21
82.11
79.85
75.02
68.58
61.61
55.05
49.42
44.75
40.58
36.31
31.36
25.47
18.61
10.94
2.65
-6.12
-15.23
-24.28
-32.37
-38.10
-39.90
-36.74
-28.78
-17.59
-5.61
4.69
11.81
15.52
16.57
15.94
14.32
11.90
8.66
4.76
0.66
-2.98
-5.73
-7.54
-8.88
-10.41
-12.73
-16.03
-20.06
-24.21
-27.76
-30.19
-31.47
-32.15
-33.07
-34.80
-37.17
-39.13
-39.11
-35.79
-28.83
-19.00
-7.94
2.58
11.27
17.60
21.68
23.92
24.71
24.36
23.14
21.42
19.59
18.02
16.87
16.04
15.30
14.45
13.34
12.09
10.96
10.27
10.24
10.78
11.44
11.38
9.65
5.63
-0.47
-7.40
-13.02
-15.02
-11.77
-3.06
9.72
24.07
37.29
47.39
53.63
56.42
56.82
55.79
53.87
51.17
47.76
44.04
40.73
38.55
37.80
38.08
38.41
37.73
35.46
31.72
27.16
22.52
18.13
13.88
9.37
4.22
-1.64
-8.01
-14.48
-20.52
-25.51
-28.74
-29.62
-27.93
-24.08
-19.07
-14.15
-10.31
-7.85
-6.37
-5.13
-3.62
-1.89
-0.56
-0.34
-1.62
-4.12
-7.02
-9.38
-10.60
-10.65
-9.95
-8.99
-8.07
-7.22
-6.44
-5.98
-6.47
-8.62
-12.75
-18.34
-23.95
-27.69
-27.94
-24.02
-16.44
-6.64
3.63
12.90
20.37
25.87
29.64
31.99
33.15
33.15
31.92
29.47
25.88
21.52
16.94
12.81
9.68
7.79
6.88
6.30
5.31
3.54
1.23
-0.89
-1.98
-1.73
-0.60
0.32
-0.11
-2.36
-5.86
-9.01
-10.01
-7.53
-1.35
7.55
17.41
26.39
33.01
36.30
35.96
32.47
27.49
24.00
26.00
37.23
59.48
91.08
126.50
157.73
176.60
177.63
159.71
126.12
83.09
37.38
-5.73
-43.41
-74.78
-99.98
-118.99
-131.27
-136.14
-133.56
-124.72
-111.90
-97.80
-84.60
-73.42
-64.49
-57.66
-53.06
-51.25
-52.91
-58.16
-66.11
-74.92
-82.34
-86.49
-86.55
-82.97
-77.25
-71.27
-66.55
-63.74
-62.56
-62.13
-61.51
-60.11
-57.77
-54.52
-50.29
-44.82
-37.74
-28.78
-17.99
-5.71
7.52
21.17
34.71
47.51
58.73
67.47
72.93
74.85
73.58
69.96
64.97
59.37
53.44
47.16
40.39
33.20
25.95
19.21
13.52
9.16
6.07
3.89
2.18
0.55
-1.21
-3.15
-5.12
-6.91
-8.36
-9.34
-9.89
-10.06
-9.84
-9.12
-7.67
-5.19
-1.42
3.69
9.86
16.52
22.81
27.82
30.76
31.20
29.15
25.12
19.94
14.65
10.15
7.01
5.37
4.96
5.22
5.50
5.17
3.73
0.88
-3.41
-8.75
-14.31
-18.90
-21.30
-20.81
-17.49
-12.29
-6.64
-1.89
1.20
2.56
2.65
2.07
1.21
0.15
-1.17
-2.74
-4.41
-5.90
-7.01
-7.77
-8.45
-9.49
-11.19
-13.60
-16.44
-19.27
-21.76
-23.85
-25.79
-27.83
-29.98
-31.69
-32.06
-30.28
-26.09
-20.08
-13.47
-7.61
-3.29
-0.50
1.32
2.90
4.54
6.05
6.97
6.95
6.18
5.18
4.60
4.71
5.22
5.37
4.33
1.58
-2.77
-8.01
-13.23
-17.61
-20.72
-22.56
-23.43
-23.67
-23.50
-23.00
-22.19
-21.08
-19.59
-17.66
-15.12
-11.89
-8.07
-3.96
-0.06
3.23
5.66
7.33
8.58
9.77
11.20
12.89
14.64
16.12
16.91
16.71
15.33
12.82
9.35
5.17
0.53
-4.37
-9.33
-14.01
-17.97
-20.69
-21.73
-20.85
-18.06
-13.57
-7.71
-0.97
6.03
12.53
17.74
21.14
22.59
22.39
21.13
19.32
17.26
14.91
12.13
8.84
5.21
1.59
-1.65
-4.26
-6.26
-7.86
-9.48
-11.52
-14.30
-17.84
-21.82
-25.57
-28.28
-29.24
-28.05
-24.74
-19.76
-13.90
-8.07
-3.20
0.03
1.34
1.00
-0.29
-1.58
-2.07
-1.47
0.00
1.80
3.48
4.95
6.49
8.46
10.95
13.60
15.60
16.01
14.14
9.74
3.14
-4.80
-12.79
-19.27
-22.74
-22.14
-17.29
-8.94
1.36
11.78
20.88
27.90
32.76
35.73
37.06
36.82
35.01
31.75
27.42
22.57
17.70
13.02
8.48
3.91
-0.79
-5.60
-10.36
-14.95
-19.40
-23.94
-28.95
-34.76
-41.32
-47.95
-53.28
-55.55
-53.16
-45.39
-32.91
-17.53
-1.75
12.27
23.28
31.07
36.01
38.54
38.98
37.65
35.24
32.81
31.55
32.11
34.34
37.23
39.42
39.83
38.07
34.46
29.67
24.42
19.12
13.94
8.89
3.86
-1.26
-6.51
-11.65
-16.01
-18.43
-17.71
-13.07
-4.71
6.11
17.54
27.83
35.95
41.76
45.65
48.01
48.81
47.77
44.69
39.98
34.66
30.05
27.15
26.17
26.46
26.86
26.31
24.23
20.70
16.23
11.45
6.82
2.52
-1.53
-5.51
-9.61
-14.09
-19.09
-24.57
-30.05
-34.55
-36.73
-35.33
-29.69
-20.10
-7.76
5.55
18.01
28.23
35.46
39.54
40.68
39.34
36.19
31.99
27.61
23.82
21.13
19.66
19.09
18.79
18.02
16.23
13.28
9.43
5.23
1.23
-2.24
-5.25
-8.24
-11.85
-16.59
-22.47
-28.77
-33.98
-36.16
-33.63
-25.65
-12.90
2.75
18.92
33.61
45.82
55.48
63.00
68.62
72.17
73.25
71.82
68.51
64.55
61.22
59.23
58.32
57.46
55.39
51.21
44.69
36.25
26.61
16.54
6.61
-2.90
-11.95
-20.78
-29.75
-39.24
-49.31
-59.53
-68.82
-75.70
-78.71
-76.93
-70.28
-59.62
-46.41
-32.30
-18.75
-6.74
3.19
10.88
16.35
19.77
21.39
21.65
21.07
20.26
19.71
19.66
20.00
20.33
20.18
19.24
17.49
15.20
12.78
10.54
8.57
6.74
4.75
2.21
-1.22
-5.79
-11.54
-18.08
-24.52
-29.48
-31.55
-29.76
-24.07
-15.47
-5.65
3.72
11.47
17.18
20.91
22.77
22.65
20.27
15.58
9.14
2.14
-3.90
-7.78
-9.17
-8.65
-7.50
-6.98
-7.81
-9.98
-12.94
-16.02
-18.80
-21.32
-23.89
-26.93
-30.75
-35.52
-41.17
-47.29
-53.01
-56.96
-57.56
-53.68
-45.19
-33.31
-20.28
-8.48
0.35
5.75
8.30
9.13
9.21
9.00
8.55
7.84
7.02
6.39
6.14
6.16
6.03
5.32
3.84
1.83
-0.25
-1.97
-3.19
-4.11
-5.15
-6.75
-9.29
-13.03
-18.02
-23.96
-30.10
-35.09
-37.40
-35.71
-29.49
-19.29
-6.65
6.35
17.71
26.02
30.79
32.35
31.56
29.40
26.62
23.74
21.06
18.85
17.30
16.47
16.10
15.65
14.52
12.39
9.44
6.20
3.22
0.70
-1.61
-4.19
-7.43
-11.46
-16.17
-21.25
-26.21
-30.20
-32.03
-30.37
-24.38
-14.26
-1.46
11.69
22.83
30.39
33.93
33.93
31.28
26.88
21.50
15.93
11.06
7.75
6.54
7.30
9.13
10.67
10.61
8.16
3.45
-2.70
-9.09
-14.77
-19.40
-23.33
-27.37
-32.30
-38.53
-45.80
-53.29
-59.82
-64.19
-65.43
-63.12
-57.46
-49.25
-39.76
-30.32
-21.97
-15.25
-10.28
-7.14
-6.05
-7.30
-10.97
-16.38
-22.06
-26.12
-27.19
-25.16
-21.49
-18.54
-18.40
-21.80
-27.83
-34.55
-40.15
-43.89
-46.11
-47.63
-48.82
-49.15
-47.51
-42.96
-35.28
-25.04
-13.12
-0.08
13.95
28.97
44.48
59.09
70.77
77.50
78.11
72.76
62.87
50.54
37.85
26.29
16.61
8.86
2.87
-1.40
-3.77
-3.94
-1.85
1.99
6.49
10.14
11.61
10.25
6.26
0.63
-5.35
-10.58
-14.32
-16.13
-15.63
-12.40
-6.02
3.52
15.46
28.25
39.94
48.72
53.67
54.89
53.34
50.38
47.29
44.98
43.85
43.71
43.84
43.22
41.00
36.87
31.37
25.72
21.38
19.41
20.03
22.60
25.83
28.17
28.10
24.46
16.74
5.48
-7.60
-19.84
-28.45
-31.51
-28.79
-21.73
-12.79
-4.44
1.76
5.34
6.56
5.77
2.97
-2.18
-9.86
-19.68
-30.42
-40.34
-47.97
-52.78
-55.43
-57.51
-60.67
-65.81
-72.64
-79.80
-85.46
-88.10
-86.96
-82.36
-75.46
-67.91
-61.24
-56.35
-53.03
-50.15
-46.25
-40.42
-32.99
-25.51
-20.06
-18.29
-20.75
-26.98
-36.23
-48.32
-63.92
-84.18
-109.87
-140.51
-173.99
-206.83
-234.85
-254.03
-261.22
-254.85
-235.08
-203.59
-162.84
-115.20
-62.27
-4.79
56.59
120.23
182.62
238.66
282.76
311.02
322.85
321.68
314.11
308.22
311.46
328.84
361.54
406.20
455.28
498.68
526.45
531.84
513.36
475.11
424.86
370.99
319.83
274.32
234.54
199.24
167.11
136.97
107.24
75.55
39.36
-2.49
-48.35
-93.59
-132.24
-159.35
-173.42
-176.93
-174.97
-172.72
-173.16
-176.27
-179.91
-181.53
-179.58
-174.05
-165.87
-156.08
-145.26
-133.66
-121.77
-110.72
-102.14
-97.44
-97.08
-100.18
-104.98
-109.65
-112.90
-114.20
-113.38
-110.17
-104.09
-94.79
-82.50
-68.22
-53.46
-39.60
-27.39
-16.97
-8.08
-0.57
5.42
9.79
12.69
14.45
15.37
15.16
13.08
8.31
0.82
-8.30
-16.96
-22.97
-25.12
-23.88
-21.35
-20.23
-22.57
-28.91
-38.03
-47.77
-56.16
-62.31
-66.51
-69.83
-73.34
-77.45
-81.72
-84.88
-85.02
-79.73
-66.07
-41.00
-2.42
49.28
109.76
170.45
220.36
249.53
252.62
230.91
191.57
144.37
97.84
56.85
22.49
-6.05
-29.12
-45.93
-55.24
-57.22
-54.29
-50.47
-49.67
-53.54
-61.25
-70.21
-77.98
-83.82
-88.84
-95.06
-103.86
-114.88
-125.85
-133.70
-135.92
-131.91
-123.20
-112.78
-103.93
-98.81
-97.89
-99.93
-102.72
-104.10
-102.90
-99.29
-94.66
-90.93
-89.65
-91.17
-94.63
-98.26
-100.32
-99.90
-97.09
-92.59
-87.28
-81.41
-74.73
-66.92
-57.75
-47.58
-37.25
-27.43
-18.40
-9.94
-1.35
7.76
17.31
26.92
36.13
44.38
51.32
56.79
60.33
61.48
59.70
54.64
46.60
36.59
26.13
16.90
10.03
5.75
3.49
2.10
0.71
-0.95
-2.64
-4.10
-5.89
-9.83
-18.26
-32.84
-53.09
-75.73
-95.78
-108.55
-111.37
-104.75
-91.81
-76.37
-61.12
-46.89
-33.10
-18.92
-4.66
8.12
17.41
21.75
21.16
17.02
11.48
6.16
1.61
-2.86
-8.58
-16.72
-27.80
-41.50
-56.92
-73.12
-89.43
-105.35
-120.40
-133.79
-144.35
-150.62
-151.39
-146.08
-134.99
-119.21
-100.20
-79.14
-56.65
-32.54
-6.11
23.66
57.85
97.23
141.77
189.97
238.29
281.24
312.73
327.99
325.65
308.59
282.80
254.94
229.78
208.85
191.04
174.40
157.92
142.21
128.80
118.70
111.40
104.88
96.47
84.01
66.74
45.43
21.97
-1.17
-21.55
-37.13
-46.58
-49.48
-46.47
-39.06
-29.43
-19.77
-11.68
-5.56
-0.46
5.27
13.09
23.17
34.18
43.77
49.98
52.15
50.79
46.79
40.57
32.22
22.62
14.29
11.08
16.52
31.46
52.72
73.84
87.54
88.69
76.06
51.95
20.48
-14.44
-49.98
-84.09
-114.39
-137.80
-151.01
-151.63
-139.33
-116.13
-85.84
-52.66
-19.82
11.25
40.56
68.62
95.38
119.72
139.68
153.16
158.93
157.02
149.01
137.65
126.54
119.34
118.70
125.29
137.23
150.51
160.19
162.20
154.75
138.95
118.32
97.42
80.35
69.48
64.65
63.15
60.38
51.17
31.59
0.51
-39.54
-82.70
-121.48
-148.93
-160.58
-155.27
-135.28
-105.36
-71.74
-40.86
-18.42
-8.30
-11.77
-27.19
-50.53
-76.70
-100.96
-119.97
-132.13
-137.25
-135.98
-129.17
-117.87
-103.33
-87.13
-71.12
-57.13
-46.60
-40.40
-38.41
-39.36
-40.99
-40.73
-36.36
-27.01
-13.42
2.35
17.91
31.31
41.58
48.29
51.29
50.43
45.67
37.54
27.45
17.61
10.30
6.99
7.59
10.38
12.74
12.08
6.99
-2.28
-13.84
-24.73
-32.03
-34.24
-31.51
-25.62
-18.92
-12.80
-6.83
1.01
13.16
30.71
52.19
73.64
90.02
97.08
93.35
79.97
59.73
35.71
10.39
-14.10
-35.56
-51.41
-59.57
-59.42
-52.76
-43.58
-36.52
-34.84
-38.78
-45.89
-52.42
-55.81
-55.90
-55.07
-56.22
-60.95
-68.74
-77.23
-83.83
-86.62
-84.92
-78.73
-68.07
-52.72
-32.79
-9.68
13.96
34.61
49.24
56.62
57.77
55.23
51.55
48.40
45.96
43.40
39.28
32.43
22.34
9.51
-4.48
-17.71
-28.47
-36.23
-41.61
-45.93
-50.38
-55.68
-61.97
-68.66
-75.05
-79.92
-81.68
-78.58
-69.43
-54.35
-35.41
-16.10
-0.05
10.35
14.92
15.26
13.75
12.40
11.95
12.01
11.57
9.83
6.80
3.55
2.01
4.11
10.39
19.37
27.98
32.97
32.73
28.45
23.55
21.68
24.49
30.71
36.79
38.90
35.05
25.94
14.32
3.65
-3.41
-5.58
-3.03
3.04
10.99
19.09
26.01
31.14
34.74
37.61
40.56
43.50
45.44
44.41
38.63
27.53
12.54
-3.11
-15.44
-21.35
-19.97
-12.81
-3.27
5.02
9.43
8.78
3.00
-7.32
-21.38
-37.79
-53.95
-65.99
-69.57
-61.79
-42.91
-16.80
10.33
32.41
45.90
50.98
50.74
49.24
49.42
51.87
55.10
56.72
54.75
48.39
38.30
26.10
14.08
4.25
-2.27
-5.61
-7.28
-9.54
-14.20
-21.72
-30.89
-39.00
-43.31
-42.15
-35.56
-25.03
-12.56
0.48
13.76
27.23
40.56
52.61
62.00
68.40
72.94
78.01
85.87
97.10
109.74
120.14
124.80
121.92
111.72
95.15
72.89
44.95
11.94
-23.76
-57.44
-83.59
-98.39
-101.69
-97.20
-90.34
-85.65
-84.78
-86.43
-87.91
-87.09
-83.61
-78.35
-72.23
-65.21
-56.58
-45.74
-33.02
-19.63
-6.83
5.12
17.19
30.52
45.16
59.09
68.94
71.81
66.99
56.54
44.25
33.61
26.01
20.43
14.61
6.69
-3.84
-16.18
-29.14
-42.14
-55.38
-69.20
-83.22
-95.63
-103.75
-105.25
-99.28
-87.20
-72.12
-57.56
-45.87
-37.33
-30.39
-22.83
-13.15
-1.56
10.56
21.51
30.47
37.69
43.83
49.24
53.42
55.49
54.99
52.69
50.24
49.03
48.90
47.96
43.61
34.50
21.51
7.53
-4.28
-12.24
-16.80
-19.56
-21.70
-23.03
-22.22
-18.26
-11.65
-4.69
-0.04
0.90
-1.18
-4.03
-5.59
-5.19
-3.66
-2.22
-1.48
-0.91
0.18
1.77
2.45
0.18
-6.12
-15.64
-25.57
-32.61
-34.75
-32.00
-26.02
-18.85
-11.83
-5.40
0.12
3.89
4.66
1.13
-6.60
-16.73
-26.14
-31.61
-30.95
-23.55
-10.35
6.92
26.03
44.88
61.30
73.43
80.02
80.64
75.90
67.36
57.23
47.79
41.07
38.12
38.75
41.47
43.83
43.46
39.06
31.17
21.72
13.18
7.11
3.21
-0.20
-5.68
-14.93
-27.89
-42.70
-56.19
-65.63
-69.85
-69.43
-66.18
-61.94
-57.23
-51.44
-43.35
-32.60
-20.52
-9.65
-2.75
-1.08
-3.89
-8.66
-12.68
-14.41
-13.88
-12.45
-11.34
-11.02
-10.94
-10.11
-7.80
-4.08
0.03
3.20
4.35
3.17
0.21
-3.67
-7.95
-12.72
-18.87
-26.75
-35.64
-43.24
-46.25
-41.99
-29.82
-12.31
5.52
18.27
22.40
18.06
9.02
1.06
-0.82
5.54
18.72
34.37
47.42
54.30
54.15
48.99
42.14
36.60
33.75
33.15
33.23
32.42
29.92
26.06
21.65
17.57
14.01
10.62
6.60
0.98
-7.33
-18.98
-33.70
-49.85
-64.09
-72.30
-70.95
-58.96
-37.93
-11.62
15.42
39.03
56.06
64.64
64.13
55.35
40.83
24.45
10.34
1.48
-1.61
-0.76
1.02
1.41
-0.09
-2.05
-2.14
1.38
8.77
18.72
29.16
38.06
43.81
45.56
42.55
34.33
20.94
3.36
-15.50
-31.14
-38.22
-32.71
-13.67
15.49
47.05
71.47
80.77
71.21
44.92
9.15
-26.48
-53.16
-65.59
-63.49
-51.00
-34.05
-18.00
-5.82
2.28
7.24
9.95
10.18
7.10
0.13
-10.28
-22.79
-36.10
-49.48
-62.65
-74.78
-83.78
-86.52
-80.51
-66.00
-46.86
-28.87
-17.12
-12.90
-12.81
-10.93
-2.37
13.68
33.03
48.02
51.95
42.36
22.31
-0.47
-17.53
-23.20
-16.76
-2.15
14.21
26.41
31.08
27.72
18.01
4.33
-10.69
-24.88
-36.32
-43.50
-45.53
-42.34
-34.76
-24.21
-12.86
-2.94
3.11
3.51
-1.99
-11.68
-22.14
-29.20
-29.43
-21.84
-7.84
9.00
24.51
35.46
40.08
38.48
32.15
23.68
16.10
12.25
14.17
22.37
35.67
51.26
65.66
75.18
77.08
69.71
52.93
28.24
-1.27
-31.37
-57.26
-74.82
-81.93
-79.21
-70.15
-59.83
-53.20
-53.37
-60.47
-71.99
-83.76
-91.72
-93.00
-86.73
-73.91
-56.92
-38.60
-21.48
-7.28
3.59
11.76
18.52
25.04
31.58
37.15
39.89
38.06
31.31
21.13
10.82
4.34
4.53
12.39
26.35
43.35
59.93
73.48
82.53
86.82
86.82
83.09
76.36
67.17
55.81
42.25
26.08
7.11
-14.05
-35.40
-53.79
-65.91
-69.60
-64.70
-53.40
-39.35
-26.37
-17.12
-12.39
-11.41
-12.11
-12.26
-10.13
-4.74
3.79
14.88
27.54
40.72
53.23
63.77
70.95
73.58
71.69
66.55
60.58
56.46
55.68
57.59
59.18
56.30
45.14
24.28
-4.57
-37.12
-68.09
-93.06
-109.64
-117.78
-118.91
-115.08
-108.39
-101.04
-95.62
-94.63
-99.27
-107.89
-115.19
-113.58
-96.24
-60.49
-9.30
50.03
109.58
164.62
215.14
263.52
310.47
351.73
378.63
382.52
360.18
316.82
264.50
216.35
180.54
157.05
139.48
119.68
92.76
59.14
23.12
-10.25
-38.14
-60.04
-76.67
-88.35
-94.11
-93.00
-85.29
-73.41
-61.55
-54.00
-53.59
-60.39
-72.05
-84.67
-94.50
-99.32
-98.73
-94.36
-88.41
-82.36
-76.02
-68.18
-57.83
-46.09
-36.53
-34.09
-42.43
-61.28
-85.75
-107.85
-120.00
-118.29
-104.10
-83.14
-62.51
-48.31
-43.89
-49.52
-63.23
-81.39
-99.08
-110.77
-111.71
-99.41
-75.35
-44.56
-14.17
9.10
21.68
23.27
16.79
6.40
-3.78
-10.74
-12.85
-10.02
-3.53
4.41
10.88
13.48
11.13
4.60
-3.61
-10.17
-12.07
-7.58
3.56
19.46
36.18
48.37
50.39
38.57
13.07
-21.28
-56.28
-83.04
-95.32
-91.20
-73.43
-47.81
-20.65
2.92
19.77
29.16
31.99
30.37
27.32
26.15
29.23
37.52
49.59
62.19
71.24
73.21
66.30
51.42
31.81
12.22
-2.46
-9.06
-7.11
0.90
10.50
16.97
17.05
9.89
-2.71
-17.46
-30.32
-37.54
-36.74
-27.38
-11.90
4.74
16.00
16.64
5.11
-15.77
-39.69
-59.63
-70.51
-70.50
-60.68
-43.90
-23.50
-2.93
14.35
25.45
28.79
25.20
17.58
9.80
4.94
3.98
5.80
8.00
8.22
4.81
-2.43
-12.54
-23.33
-32.22
-37.07
-37.02
-33.20
-27.82
-23.11
-20.05
-17.99
-15.46
-11.62
-6.80
-2.26
0.81
2.41
3.59
5.62
8.76
11.56
11.50
6.49
-3.51
-16.12
-27.50
-34.43
-36.34
-35.28
-35.03
-38.59
-46.31
-55.80
-63.21
-65.06
-59.84
-48.21
-32.19
-14.38
2.62
16.22
23.79
23.27
14.34
-1.06
-18.83
-33.95
-42.35
-42.26
-34.38
-20.95
-4.52
12.67
29.26
44.19
56.46
64.92
68.92
68.66
65.37
61.28
58.62
58.89
62.32
67.60
72.26
73.62
69.74
60.32
47.01
32.60
19.96
10.66
4.64
0.56
-3.13
-6.99
-10.33
-11.56
-9.07
-2.44
7.04
16.90
24.32
26.79
23.33
14.37
1.60
-12.60
-25.75
-35.94
-42.14
-44.34
-43.76
-42.28
-41.83
-43.53
-47.00
-50.20
-50.18
-44.20
-31.31
-13.24
5.63
19.48
23.04
13.74
-7.33
-35.46
-63.71
-85.04
-94.74
-91.49
-77.56
-57.37
-35.38
-14.55
4.35
22.07
39.47
56.62
72.52
85.59
94.36
98.36
97.64
92.58
83.71
71.62
57.45
43.10
30.73
22.15
18.01
17.51
18.86
20.00
19.36
16.63
12.65
8.92
7.11
8.60
13.84
22.05
31.24
38.66
41.51
38.40
29.99
18.78
8.13
0.55
-3.37
-5.44
-8.44
-14.50
-23.75
-34.20
-42.91
-47.90
-48.94
-47.36
-45.30
-44.15
-44.12
-44.52
-44.22
-42.67
-39.76
-35.75
-30.92
-25.16
-18.21
-9.84
0.39
12.36
25.46
38.80
51.16
61.33
68.95
74.07
77.15
78.55
78.24
75.21
68.47
57.36
41.95
23.72
5.03
-11.54
-24.31
-32.68
-37.23
-39.10
-39.52
-39.43
-39.21
-39.49
-40.69
-42.96
-45.76
-47.94
-48.25
-46.12
-41.97
-37.00
-32.80
-30.66
-30.85
-33.11
-36.39
-39.50
-41.52
-41.75
-39.72
-35.59
-29.65
-22.42
-14.57
-6.83
0.52
7.73
15.39
24.22
34.62
46.40
58.20
68.40
75.73
79.78
80.64
78.32
72.65
63.18
50.23
35.65
22.44
13.36
9.69
10.11
11.68
11.04
6.17
-2.82
-14.33
-25.88
-35.28
-40.86
-41.25
-35.77
-24.63
-9.81
5.28
16.40
20.21
15.42
3.63
-11.29
-25.10
-34.54
-38.77
-38.61
-35.94
-32.34
-28.62
-24.85
-21.34
-18.82
-17.86
-18.49
-19.49
-18.85
-14.79
-7.04
2.99
12.86
20.68
26.43
31.43
37.22
43.95
49.92
52.45
49.65
41.71
30.83
20.16
11.89
6.47
2.94
-0.31
-4.31
-9.38
-15.58
-23.09
-32.18
-42.72
-53.03
-60.20
-61.19
-54.36
-40.24
-21.83
-3.07
12.31
22.25
26.56
26.33
23.22
18.50
12.98
7.12
1.54
-2.75
-4.54
-2.83
2.57
10.83
20.32
29.17
36.03
40.53
43.25
45.08
46.51
47.08
45.58
40.50
30.71
16.27
-1.28
-19.15
-33.99
-42.77
-44.02
-38.29
-27.99
-16.38
-6.18
0.84
4.00
3.07
-1.94
-10.39
-20.57
-29.53
-33.99
-31.60
-22.36
-8.50
6.20
17.93
24.43
25.41
22.20
16.72
10.42
4.10
-2.05
-7.78
-12.61
-15.59
-15.74
-12.33
-5.56
3.47
12.99
21.31
27.73
32.39
36.10
39.40
42.37
44.53
45.56
45.67
45.44
45.43
45.50
45.15
43.46
40.00
34.88
28.70
21.76
13.97
5.15
-4.53
-14.24
-22.65
-28.76
-32.63
-35.23
-37.78
-41.17
-45.53
-50.31
-54.61
-57.73
-59.34
-59.34
-57.72
-54.53
-49.86
-43.69
-36.40
-28.26
-19.83
-11.69
-4.47
1.44
6.02
9.95
14.55
21.02
29.95
40.26
49.66
55.50
55.74
49.90
39.29
26.23
12.81
0.35
-10.67
-19.83
-26.29
-28.82
-26.84
-21.45
-15.64
-12.95
-15.47
-22.72
-31.74
-38.69
-40.57
-36.10
-25.91
-12.01
2.87
16.00
24.76
26.91
21.29
8.32
-9.19
-26.65
-38.79
-41.41
-33.45
-17.37
1.74
17.86
26.37
25.76
18.06
7.93
0.51
-1.18
2.70
9.26
14.41
15.40
11.96
6.42
2.48
3.90
12.78
29.14
51.11
75.82
99.92
119.90
132.68
135.62
127.42
108.85
82.94
54.23
27.31
5.28
-11.30
-23.67
-34.11
-44.49
-55.46
-66.73
-77.28
-86.21
-92.57
-95.35
-93.32
-85.79
-73.17
-57.10
-40.14
-24.38
-11.05
0.10
9.72
18.52
26.11
31.53
33.67
31.52
25.13
15.51
4.66
-4.84
-10.62
-11.11
-6.11
2.89
12.95
21.00
24.38
22.09
14.79
4.21
-6.90
-16.05
-21.21
-21.53
-17.36
-10.44
-3.21
1.79
2.56
-1.74
-10.43
-21.54
-32.56
-40.57
-43.79
-41.55
-34.45
-23.89
-11.66
0.02
9.32
14.76
15.39
11.31
3.76
-5.55
-14.68
-22.32
-28.13
-32.25
-34.98
-36.26
-35.10
-30.56
-22.20
-11.48
-1.30
5.04
5.51
0.56
-6.72
-12.50
-13.79
-9.84
-2.55
5.20
10.70
12.84
11.86
8.93
5.23
1.15
-3.21
-7.25
-9.96
-10.60
-8.84
-5.24
-0.74
3.72
7.71
11.28
15.20
20.25
26.70
33.63
38.56
38.36
30.89
16.08
-3.17
-22.17
-36.18
-42.00
-38.82
-28.06
-12.11
6.61
25.61
42.09
52.41
53.04
42.21
21.59
-3.96
-27.70
-43.38
-47.62
-40.41
-24.68
-4.89
14.33
29.43
38.04
39.05
32.18
17.89
-1.90
-24.16
-44.40
-57.94
-61.57
-54.54
-39.07
-20.12
-3.08
8.45
13.52
13.66
11.53
8.97
6.81
4.95
2.48
-1.21
-5.59
-9.58
-11.90
-12.03
-10.36
-7.09
-2.55
2.05
4.95
4.81
1.69
-3.24
-8.64
-13.61
-16.97
-18.15
-17.33
-15.29
-12.17
-7.56
-1.46
4.69
9.11
13.24
21.70
39.83
71.02
114.69
165.52
214.54
251.94
261.26
234.65
180.80
121.02
73.58
44.17
28.33
18.96
11.07
3.44
-1.75
-2.64
-0.85
-1.25
-7.83
-21.17
-38.26
-53.95
-63.56
-64.13
-56.51
-46.16
-41.61
-50.86
-75.80
-114.08
-158.82
-200.95
-231.34
-244.26
-238.78
-218.55
-189.02
-155.09
-120.87
-89.04
-61.61
-39.41
-22.47
-9.81
0.12
9.24
18.85
28.51
36.47
39.94
36.82
26.45
9.95
-9.92
-29.35
-44.75
-53.97
-56.75
-54.56
-49.98
-45.49
-42.76
-41.77
-41.27
-38.96
-32.69
-21.19
-5.32
12.17
27.37
36.48
37.72
31.76
21.62
11.08
3.45
0.14
0.81
3.80
7.30
10.18
12.15
13.40
14.36
15.13
15.52
15.44
15.13
15.59
17.69
21.78
27.09
32.29
36.31
39.49
43.62
50.69
62.29
78.49
98.23
120.30
143.36
165.83
185.25
198.39
202.14
195.28
179.59
159.28
139.09
121.43
105.34
87.59
65.36
38.76
11.07
-13.07
-30.61
-42.00
-51.19
-62.78
-79.31
-99.90
-120.26
-135.28
-141.44
-138.19
-127.61
-112.92
-96.82
-80.55
-64.19
-47.23
-29.47
-11.75
4.63
18.16
27.88
33.79
37.04
38.94
40.61
42.38
43.09
41.33
36.03
27.83
19.07
12.88
11.46
14.63
19.55
22.17
19.64
12.11
3.15
-2.22
-0.23
9.27
22.55
34.54
41.43
43.48
44.18
48.13
57.88
71.93
85.64
93.48
92.18
81.93
66.46
50.58
37.88
29.68
24.92
21.65
18.40
14.82
11.18
7.85
4.52
0.36
-5.24
-12.36
-20.53
-29.02
-37.14
-44.60
-50.66
-54.32
-54.47
-50.30
-42.36
-32.61
-23.90
-18.73
-18.25
-21.92
-28.14
-34.91
-40.68
-45.05
-48.32
-51.14
-54.09
-57.09
-59.30
-59.41
-56.49
-50.32
-41.77
-32.28
-23.67
-17.67
-15.41
-17.70
-24.56
-35.24
-48.29
-61.62
-72.76
-79.75
-81.73
-78.94
-72.49
-63.95
-54.75
-46.03
-38.38
-31.89
-26.22
-20.60
-14.31
-7.21
0.24
7.39
13.89
20.00
26.65
35.00
45.38
56.88
67.62
75.02
77.26
73.69
65.30
54.03
41.72
29.99
19.54
10.34
2.15
-5.33
-12.07
-17.52
-20.63
-20.65
-17.63
-12.61
-7.28
-2.99
-0.17
1.54
2.66
3.13
2.01
-1.85
-8.54
-15.98
-20.33
-17.56
-6.10
11.35
28.55
37.87
34.10
16.45
-11.23
-42.34
-70.47
-90.87
-100.61
-98.34
-83.69
-57.40
-21.92
18.42
58.44
93.69
122.13
144.35
161.96
175.77
184.37
184.44
172.83
148.88
115.70
79.28
46.21
20.93
3.88
-8.15
-19.94
-34.72
-52.44
-69.47
-81.06
-84.23
-79.65
-71.12
-63.20
-58.64
-56.57
-53.35
-45.05
-30.48
-12.92
0.94
4.11
-6.76
-29.13
-55.22
-75.62
-83.13
-75.70
-56.49
-31.60
-7.33
12.10
24.84
30.82
30.50
24.72
14.63
1.98
-10.80
-21.95
-30.55
-36.63
-40.50
-42.10
-41.06
-37.45
-31.91
-25.85
-20.70
-17.56
-16.91
-18.71
-22.47
-27.38
-32.87
-38.35
-43.25
-47.57
-51.40
-54.84
-57.57
-58.25
-55.15
-47.07
-34.56
-19.75
-5.76
4.44
9.09
8.05
3.18
-3.22
-9.23
-14.12
-18.75
-24.03
-30.63
-38.68
-46.70
-51.85
-50.97
-41.68
-23.72
0.42
27.13
51.11
66.68
70.55
63.72
50.80
39.52
37.79
50.73
80.25
122.32
168.36
208.88
237.32
251.24
253.12
248.05
231.58
204.70
171.24
134.12
94.19
54.79
17.32
-14.00
-35.53
-46.90
-48.04
-43.32
-39.67
-43.07
-55.33
-73.68
-91.90
-104.21
-107.82
-102.90
-93.54
-85.20
-81.83
-84.37
-91.71
-101.50
-111.37
-119.27
-122.56
-119.29
-108.75
-91.23
-68.46
-42.98
-17.55
5.01
22.28
32.67
35.12
29.77
18.16
3.72
-8.85
-14.84
-11.39
1.36
19.97
39.02
53.12
58.84
56.04
47.17
35.98
25.90
18.65
14.31
11.88
9.72
6.71
2.36
-3.39
-9.81
-15.57
-19.13
-19.46
-16.36
-10.80
-4.12
2.25
7.32
10.60
12.04
11.81
10.10
7.32
3.96
0.39
-3.20
-6.75
-10.25
-13.28
-14.95
-14.51
-11.80
-8.06
-5.48
-6.55
-12.77
-24.07
-39.05
-55.42
-71.04
-84.30
-93.94
-98.74
-97.58
-89.77
-75.53
-56.39
-34.62
-12.68
7.54
24.91
38.90
49.12
55.05
56.36
53.36
47.33
40.04
33.54
29.13
27.11
27.02
27.66
27.86
26.79
24.01
19.80
15.30
12.20
12.25
16.92
26.40
39.58
54.47
68.82
80.73
88.68
91.39
87.32
75.45
55.58
29.39
0.50
-26.19
-46.04
-56.44
-57.85
-53.41
-47.78
-45.64
-49.88
-60.81
-75.88
-90.32
-98.80
-97.04
-83.61
-60.39
-32.00
-3.97
19.08
34.36
41.25
40.57
33.71
22.16
7.81
-6.98
-19.69
-27.95
-30.84
-28.80
-23.36
-16.20
-8.54
-0.80
7.03
14.77
21.45
25.37
24.60
17.64
4.34
-13.79
-33.81
-51.86
-64.17
-67.99
-62.56
-48.92
-30.03
-9.76
8.12
20.76
26.76
26.00
19.70
9.70
-1.71
-12.14
-19.31
-21.39
-17.40
-7.64
6.07
20.71
32.69
38.82
37.32
28.76
15.84
2.96
-5.39
-6.37
0.25
12.15
25.28
35.98
42.30
44.27
43.00
39.35
32.80
22.10
6.74
-11.73
-29.29
-41.49
-45.38
-41.45
-33.56
-27.04
-25.59
-29.51
-36.11
-41.22
-41.47
-35.88
-25.26
-10.92
6.06
25.66
47.64
70.47
91.05
105.44
110.80
106.96
96.99
86.01
78.99
78.32
82.62
87.80
88.99
83.11
70.32
53.64
37.39
25.00
17.92
15.80
17.61
22.35
29.26
37.46
45.15
49.76
49.04
41.86
29.49
15.15
2.51
-5.55
-8.23
-7.20
-5.80
-7.61
-15.14
-28.80
-46.77
-66.08
-83.50
-96.91
-106.06
-112.15
-117.31
-123.46
-131.61
-141.31
-150.81
-157.48
-158.79
-152.84
-139.33
-119.62
-96.75
-74.48
-56.08
-43.23
-35.35
-30.21
-24.79
-17.02
-6.64
4.94
15.60
23.60
28.69
31.94
34.95
38.90
43.78
48.65
52.59
55.19
56.73
57.30
56.04
51.26
41.40
26.49
8.81
-7.95
-20.66
-28.31
-32.55
-36.12
-40.64
-45.07
-45.92
-39.43
-23.74
-0.33
26.75
52.70
74.11
89.82
100.64
107.92
112.24
112.90
108.43
97.98
82.25
63.78
45.97
31.31
20.79
13.73
9.22
7.46
9.89
18.01
31.24
45.57
54.76
53.10
38.74
15.02
-11.12
-32.56
-44.83
-47.17
-40.94
-27.99
-9.14
14.95
42.41
69.10
89.62
99.47
97.51
87.10
74.50
66.40
66.92
76.31
91.61
108.11
121.40
128.37
127.91
120.37
107.00
89.27
68.34
44.99
19.74
-7.35
-36.69
-68.57
-102.84
-137.64
-168.83
-190.25
-195.09
-179.13
-142.99
-92.98
-39.83
4.92
33.03
41.85
34.08
15.55
-7.92
-31.97
-54.24
-73.46
-88.28
-96.97
-98.14
-91.76
-79.23
-63.78
-49.17
-38.79
-34.73
-37.37
-45.36
-56.27
-67.57
-77.25
-84.60
-89.39
-91.67
-90.89
-85.62
-74.50
-57.22
-35.04
-10.76
11.83
29.55
40.39
43.89
40.93
33.07
22.62
12.12
4.22
0.77
2.49
8.50
16.56
24.14
29.10
30.36
27.95
22.96
16.71
10.43
5.05
0.78
-2.36
-4.59
-5.39
-4.01
0.40
7.83
16.86
25.02
29.64
29.49
25.16
19.05
14.02
11.98
13.23
16.89
21.93
27.58
33.86
40.53
46.65
50.69
50.93
46.55
38.20
27.71
17.05
7.95
0.76
-5.04
-10.18
-15.19
-19.64
-22.80
-23.89
-23.04
-21.01
-18.76
-16.73
-14.41
-11.05
-6.23
-0.90
2.85
3.10
-0.64
-7.26
-14.27
-19.10
-20.56
-18.45
-13.29
-5.85
3.47
14.03
24.48
33.11
38.01
38.05
33.40
24.80
13.45
0.71
-12.27
-24.08
-33.40
-39.39
-41.98
-41.84
-39.55
-35.05
-27.86
-17.85
-5.91
5.68
14.53
19.39
21.00
21.54
23.37
27.55
33.23
38.21
40.58
39.60
35.97
31.40
27.41
24.76
23.10
21.56
19.30
15.74
10.48
3.68
-4.37
-13.16
-22.03
-30.59
-38.23
-44.53
-48.99
-50.99
-49.85
-45.32
-37.45
-27.16
-15.90
-5.12
3.82
10.55
15.35
18.67
21.04
22.39
22.34
20.51
16.52
10.39
2.76
-5.63
-13.75
-21.03
-27.25
-32.61
-37.15
-40.41
-41.37
-38.94
-32.30
-22.09
-10.17
0.86
8.23
10.12
6.41
-1.90
-12.49
-22.69
-30.21
-33.44
-32.14
-26.99
-18.72
-8.09
4.20
17.00
27.91
34.06
33.42
25.89
14.24
2.35
-6.25
-10.18
-10.46
-9.64
-9.71
-11.23
-13.37
-15.08
-16.11
-17.28
-19.62
-23.54
-28.78
-34.80
-40.84
-46.50
-50.89
-52.07
-47.33
-33.84
-10.39
21.55
58.30
95.53
129.12
155.99
174.16
182.91
182.36
172.86
155.35
131.16
103.63
76.66
53.28
35.09
22.45
14.62
10.07
6.98
3.81
1.61
1.79
4.45
8.41
12.27
15.95
20.55
27.95
39.61
58.14
84.24
115.77
148.64
178.93
204.23
223.01
234.32
222.68
181.04
116.15
46.03
-12.57
-52.92
-76.83
-90.07
-97.99
-103.62
-105.66
-102.74
-96.02
-89.23
-86.48
-90.09
-100.67
-116.72
-135.21
-150.59
-158.30
-156.50
-146.98
-133.75
-117.15
-99.98
-84.85
-73.22
-63.56
-53.35
-40.72
-25.50
-9.18
6.31
18.77
26.91
30.48
30.40
27.56
22.26
14.32
3.43
-10.02
-25.57
-41.62
-55.60
-64.59
-66.55
-61.52
-52.08
-42.28
-35.70
-34.19
-36.86
-41.28
-44.95
-47.31
-49.53
-53.31
-59.33
-66.11
-70.80
-70.69
-64.65
-54.15
-42.53
-33.36
-28.97
-29.69
-33.74
-38.33
-40.69
-38.29
-29.51
-13.90
7.25
30.94
52.89
68.57
74.94
71.40
59.28
40.98
18.56
-6.47
-32.74
-58.47
-80.92
-97.47
-106.68
-109.13
-107.17
-103.59
-99.68
-94.54
-85.26
-68.26
-40.61
-1.28
48.65
106.08
166.21
223.00
269.13
297.79
304.42
289.04
257.12
218.73
185.19
164.62
159.05
164.36
172.54
175.62
168.70
150.90
124.19
91.83
57.05
22.83
-7.89
-32.47
-49.15
-57.93
-60.59
-60.17
-59.62
-60.83
-64.07
-68.19
-71.43
-72.14
-69.51
-63.92
-57.11
-51.36
-48.98
-51.40
-58.25
-67.48
-75.45
-78.23
-73.12
-59.87
-40.85
-20.62
-4.26
4.65
5.13
-0.57
-8.01
-12.06
-8.79
2.95
21.46
42.08
58.89
66.04
59.79
40.00
10.07
-24.13
-56.60
-83.28
-102.76
-115.35
-121.89
-122.08
-114.87
-100.14
-79.40
-56.48
-36.48
-23.09
-17.15
-16.84
-18.64
-19.73
-19.23
-17.47
-15.03
-11.19
-4.20
7.65
23.99
41.41
54.60
58.26
49.98
31.46
7.72
-14.71
-30.67
-38.45
-39.51
-37.19
-34.69
-33.05
-31.16
-26.40
-16.45
-1.31
16.40
32.18
41.09
39.74
27.68
7.22
-17.44
-41.57
-61.14
-72.83
-74.57
-65.66
-47.08
-22.13
4.31
26.70
40.63
43.96
37.05
22.16
2.38
-19.44
-41.16
-61.31
-78.34
-90.66
-96.60
-95.39
-87.99
-77.42
-67.82
-62.96
-64.16
-69.81
-75.74
-77.88
-73.89
-63.69
-48.82
-31.12
-11.69
8.41
27.04
40.95
47.03
44.11
34.96
24.99
19.66
21.64
29.22
37.90
44.40
49.05
55.65
68.89
90.62
117.59
142.68
157.85
157.54
140.53
109.70
70.31
28.78
-8.77
-37.03
-52.28
-53.26
-41.62
-21.33
2.44
25.12
43.19
53.90
54.95
44.37
21.44
-11.80
-50.02
-85.66
-111.29
-122.17
-117.91
-101.76
-79.15
-55.56
-34.93
-18.96
-7.41
1.23
8.73
16.27
24.01
31.08
36.02
37.60
35.64
30.92
25.02
19.70
15.94
13.60
11.63
8.82
4.35
-1.66
-8.09
-13.29
-15.75
-14.77
-10.80
-5.12
0.63
5.05
7.14
6.51
3.10
-2.92
-11.31
-21.74
-33.70
-46.50
-59.24
-70.86
-80.15
-85.94
-87.19
-83.46
-74.93
-62.61
-47.86
-31.96
-15.67
0.89
17.91
35.71
54.20
72.96
91.25
107.93
121.58
130.89
134.70
132.47
124.60
112.47
98.05
83.42
70.08
58.81
49.62
41.98
35.13
28.23
20.42
11.22
0.79
-10.07
-20.10
-28.26
-34.22
-38.63
-42.60
-46.93
-51.56
-55.51
-57.59
-57.08
-54.07
-49.27
-43.37
-36.87
-30.19
-23.87
-18.84
-16.02
-15.76
-17.34
-19.15
-19.03
-15.16
-6.59
6.60
23.30
41.91
60.53
77.16
89.85
97.03
97.74
91.88
80.58
65.72
49.56
34.41
22.05
13.26
8.43
7.17
8.85
12.62
17.34
21.89
25.35
27.19
27.28
25.73
22.24
16.44
8.33
-1.40
-10.98
-18.43
-22.68
-24.09
-24.60
-26.55
-31.51
-39.57
-49.45
-59.28
-67.33
-72.69
-74.98
-74.20
-70.77
-65.12
-57.69
-48.68
-37.54
-23.48
-5.87
14.86
36.94
57.72
74.73
86.47
92.82
94.73
93.23
88.96
82.34
73.67
63.56
52.95
42.65
33.07
24.02
15.02
5.90
-3.03
-10.78
-16.49
-19.71
-21.01
-22.02
-24.63
-30.35
-39.58
-51.50
-64.48
-76.80
-87.14
-94.78
-99.16
-99.51
-94.80
-84.20
-68.04
-48.07
-27.19
-8.26
7.23
19.54
30.17
40.57
51.06
60.55
67.35
70.34
69.69
66.72
63.15
60.12
57.54
54.49
50.00
43.65
35.94
27.91
20.51
13.93
7.60
0.68
-7.20
-15.57
-22.97
-27.81
-29.12
-27.14
-23.17
-18.81
-15.10
-12.21
-9.58
-6.58
-3.23
-0.29
0.85
-1.07
-6.59
-15.05
-24.64
-33.07
-38.19
-38.90
-35.34
-28.83
-21.16
-13.88
-7.76
-2.80
1.51
5.69
10.07
14.98
20.62
27.30
34.93
42.94
50.13
55.27
57.53
57.02
54.82
52.46
51.10
50.91
50.94
49.66
45.83
39.10
30.24
20.64
11.76
4.51
-0.79
-4.37
-6.80
-8.72
-10.88
-14.01
-18.72
-25.31
-33.34
-41.96
-49.99
-56.47
-60.78
-62.74
-62.35
-59.58
-54.27
-46.17
-35.17
-21.48
-5.64
11.46
28.72
44.88
58.76
69.22
75.57
77.47
75.12
69.25
61.13
52.22
44.07
37.97
34.40
32.98
32.50
31.51
29.04
25.03
20.19
15.46
11.43
7.68
3.33
-2.46
-9.62
-17.23
-23.63
-27.37
-27.84
-25.69
-22.76
-21.39
-23.62
-30.53
-41.71
-55.59
-69.89
-82.54
-92.03
-97.66
-99.09
-96.11
-88.50
-76.40
-60.70
-43.04
-25.42
-9.64
3.14
12.70
19.34
23.75
26.85
29.62
32.88
37.00
41.63
45.83
48.51
48.94
47.14
43.73
39.51
34.97
30.10
24.58
18.10
10.66
2.62
-5.47
-12.96
-19.37
-24.46
-28.40
-31.60
-34.60
-37.84
-41.47
-45.33
-49.23
-53.15
-57.38
-62.34
-67.93
-73.17
-76.36
-75.57
-69.50
-58.09
-42.40
-24.01
-4.31
15.69
35.23
53.39
68.60
79.14
83.57
81.85
75.32
66.38
57.60
50.71
46.21
43.40
40.88
37.15
31.13
22.44
11.45
-0.83
-13.23
-24.67
-34.40
-42.14
-47.78
-51.08
-51.97
-50.41
-46.90
-42.58
-39.13
-37.90
-39.30
-42.52
-45.78
-47.21
-45.81
-41.59
-35.60
-28.86
-21.94
-14.61
-6.35
2.93
12.60
21.45
28.29
32.78
35.58
37.93
40.95
44.90
49.06
52.14
53.18
52.00
49.37
46.61
44.81
44.44
45.13
45.96
45.88
44.07
40.03
33.64
25.30
15.71
5.90
-3.08
-10.40
-15.81
-19.60
-22.73
-26.31
-31.26
-37.86
-45.65
-53.45
-59.86
-63.78
-64.99
-64.23
-62.64
-61.14
-59.67
-57.18
-52.16
-43.49
-31.00
-15.56
1.42
18.55
34.75
49.22
61.27
70.21
75.47
77.00
75.23
71.00
65.17
58.22
50.24
41.29
31.47
21.24
11.13
1.51
-7.62
-16.41
-25.14
-33.82
-42.26
-50.27
-57.80
-65.08
-72.23
-78.98
-84.39
-87.02
-85.54
-79.37
-69.10
-56.33
-43.08
-31.01
-21.00
-12.94
-6.16
0.17
6.65
13.54
20.75
28.04
35.24
42.33
49.54
56.98
64.43
71.31
76.69
79.87
80.80
80.14
78.78
77.19
74.84
70.35
62.29
50.15
34.97
19.09
5.07
-5.50
-12.72
-18.01
-23.32
-29.88
-37.72
-45.66
-52.03
-55.62
-56.23
-54.76
-52.76
-51.55
-51.82
-53.34
-55.19
-56.27
-55.74
-53.07
-48.39
-42.14
-35.16
-28.58
-23.55
-20.86
-20.62
-21.92
-22.90
-21.38
-15.61
-4.98
9.73
26.72
43.89
59.37
72.01
81.24
86.71
88.28
86.01
80.10
71.56
61.52
51.02
40.74
30.87
21.59
13.54
7.77
5.13
5.70
8.09
9.92
8.98
4.08
-4.33
-14.51
-24.45
-32.68
-38.65
-42.58
-44.84
-45.53
-44.40
-40.98
-34.99
-26.65
-16.74
-6.41
3.13
11.13
17.86
24.11
31.06
39.37
49.12
60.58
74.93
94.30
120.38
152.51
186.06
213.36
226.03
218.53
190.60
147.00
95.61
44.22
-1.66
-39.58
-69.28
-91.58
-107.42
-117.67
-123.50
-126.23
-127.33
-127.96
-128.66
-129.13
-128.13
-124.06
-115.60
-102.46
-85.81
-68.12
-52.20
-40.14
-32.56
-28.55
-26.67
-25.53
-24.40
-22.80
-20.43
-16.69
-10.91
-2.97
6.52
16.31
25.21
32.70
39.28
45.92
53.26
61.17
68.67
74.79
79.06
81.58
